# OpenSignals Text File Format. Version 1
# {"84:2E:14:0C:D8:EF": {"position": 0, "device": "biosignalsplux", "device name": "84:2E:14:0C:D8:EF", "device connection": "BTH84:2E:14:0C:D8:EF", "sampling rate": 100, "resolution": [16, 16], "firmware version": 779, "comments": "", "keywords": "", "mode": 0, "sync interval": 2, "date": "2026-4-1", "time": "16:0:29.895", "channels": [9, 10, 11], "sensor": ["fSpO2", "fSpO2", "%SpO2"], "label": ["CH9A", "CH9B", "%SpO2"], "column": ["nSeq", "DI", "CH9A", "CH9B", "%SpO2"], "special": [{"SpO2": [80, 40, 5, 4, 5, 5]}, {"SpO2": [80, 40, 5, 4, 5, 5]}, {"SpO2": [80, 40, 5, 4, 5, 5]}, {"SpO2": [80, 40, 5, 4, 5, 5]}, {"SpO2": [80, 40, 5, 4, 5, 5]}, {"SpO2": [80, 40, 5, 4, 5, 5]}, {"SpO2": [80, 40, 5, 4, 5, 5]}, {"SpO2": [80, 40, 5, 4, 5, 5]}, {"SpO2": [80, 40, 5, 4, 5, 5]}, {"SpO2": [80, 40, 5, 4, 5, 5]}], "digital IO": [0, 1], "virtual channels": "{'channels': [11], 'calculationChannels': [[9, 10]]}", "sleeve color": ["yellow", "yellow", "dark_blue"]}}
# EndOfHeader
0	0	60299	25921	0	
1	0	60314	25917	0	
2	0	60321	25922	0	
3	0	60334	25930	0	
4	0	60336	25929	0	
5	0	60333	25932	0	
6	0	60338	25937	0	
7	0	60342	25942	0	
8	0	60354	25943	0	
9	0	60361	25945	0	
10	0	60361	25950	0	
11	0	60381	25957	0	
12	0	60379	25963	0	
13	0	60389	25964	0	
14	0	60387	25970	0	
15	0	60393	25973	0	
16	0	60398	25976	0	
17	0	60406	25979	0	
18	0	60417	25978	0	
19	0	60412	25987	0	
20	0	60414	25983	0	
21	0	60431	25992	0	
22	0	60431	25991	0	
23	0	60449	25999	0	
24	0	60446	26001	0	
25	0	60440	26002	0	
26	0	60438	26005	0	
27	0	60440	26003	0	
28	0	60431	26007	0	
29	0	60444	26006	0	
30	0	60462	26019	0	
31	0	60480	26027	0	
32	0	60487	26031	0	
33	0	60496	26036	0	
34	0	60491	26040	0	
35	0	60506	26046	0	
36	0	60513	26051	0	
37	0	60520	26051	0	
38	0	60521	26054	0	
39	0	60521	26060	0	
40	0	60526	26067	0	
41	0	60530	26071	0	
42	0	60547	26076	0	
43	0	60565	26080	0	
44	0	60571	26089	0	
45	0	60575	26088	0	
46	0	60579	26094	0	
47	0	60577	26089	0	
48	0	60543	26081	0	
49	0	60521	26067	0	
50	0	60498	26056	0	
51	0	60467	26041	0	
52	0	60437	26025	0	
53	0	60413	25999	0	
54	0	60368	25984	0	
55	0	60341	25959	0	
56	0	60311	25942	0	
57	0	60276	25920	0	
58	0	60250	25909	0	
59	0	60242	25898	0	
60	0	60226	25887	0	
61	0	60235	25888	0	
62	0	60243	25884	0	
63	0	60251	25880	0	
64	0	60257	25879	0	
65	0	60257	25875	0	
66	0	60236	25876	0	
67	0	60238	25869	0	
68	0	60234	25871	0	
69	0	60238	25870	0	
70	0	60236	25869	0	
71	0	60227	25872	0	
72	0	60247	25874	0	
73	0	60245	25878	0	
74	0	60252	25880	0	
75	0	60268	25884	0	
76	0	60265	25883	0	
77	0	60262	25883	0	
78	0	60262	25881	0	
79	0	60254	25882	0	
80	0	60250	25881	0	
81	0	60239	25876	0	
82	0	60233	25876	0	
83	0	60238	25874	0	
84	0	60235	25877	0	
85	0	60236	25876	0	
86	0	60233	25876	0	
87	0	60234	25872	0	
88	0	60227	25881	0	
89	0	60233	25878	0	
90	0	60232	25880	0	
91	0	60234	25879	0	
92	0	60240	25882	0	
93	0	60252	25880	0	
94	0	60249	25886	0	
95	0	60245	25887	0	
96	0	60247	25890	0	
97	0	60259	25894	0	
98	0	60266	25897	0	
99	0	60272	25903	0	
100	0	60275	25907	0	
101	0	60277	25909	0	
102	0	60285	25917	0	
103	0	60308	25926	0	
104	0	60313	25931	0	
105	0	60315	25934	0	
106	0	60318	25936	0	
107	0	60326	25941	0	
108	0	60343	25952	0	
109	0	60342	25950	0	
110	0	60354	25956	0	
111	0	60358	25965	0	
112	0	60356	25971	0	
113	0	60362	25969	0	
114	0	60359	25975	0	
115	0	60367	25980	0	
116	0	60367	25988	0	
117	0	60371	25988	0	
118	0	60383	25989	0	
119	0	60388	25994	0	
120	0	60386	25997	0	
121	0	60400	26002	0	
122	0	60403	26008	0	
123	0	60419	26013	0	
124	0	60414	26008	0	
125	0	60410	26012	0	
126	0	60400	26019	0	
127	0	60412	26020	0	
128	0	60410	26025	0	
129	0	60414	26026	0	
130	0	60423	26035	0	
131	0	60437	26032	0	
132	0	60449	26041	0	
133	0	60461	26047	0	
134	0	60473	26050	0	
135	0	60479	26049	0	
136	0	60475	26055	0	
137	0	60477	26055	0	
138	0	60490	26066	0	
139	0	60482	26060	0	
140	0	60478	26065	0	
141	0	60463	26059	0	
142	0	60442	26057	0	
143	0	60440	26045	0	
144	0	60419	26034	0	
145	0	60396	26009	0	
146	0	60359	25995	0	
147	0	60330	25972	0	
148	0	60273	25947	0	
149	0	60221	25926	0	
150	0	60176	25901	0	
151	0	60170	25889	0	
152	0	60156	25885	0	
153	0	60176	25876	0	
154	0	60192	25882	0	
155	0	60203	25874	0	
156	0	60179	25865	0	
157	0	60166	25860	0	
158	0	60146	25858	0	
159	0	60121	25847	0	
160	0	60131	25854	0	
161	0	60147	25856	0	
162	0	60160	25862	0	
163	0	60184	25865	0	
164	0	60189	25868	0	
165	0	60206	25873	0	
166	0	60197	25871	0	
167	0	60187	25861	0	
168	0	60194	25870	0	
169	0	60193	25869	0	
170	0	60181	25865	0	
171	0	60176	25867	0	
172	0	60170	25862	0	
173	0	60173	25870	0	
174	0	60181	25867	0	
175	0	60175	25865	0	
176	0	60175	25864	0	
177	0	60173	25861	0	
178	0	60167	25861	0	
179	0	60182	25860	0	
180	0	60190	25866	0	
181	0	60207	25868	0	
182	0	60216	25867	0	
183	0	60214	25866	0	
184	0	60229	25870	0	
185	0	60248	25874	0	
186	0	60249	25872	0	
187	0	60244	25873	0	
188	0	60248	25875	0	
189	0	60222	25878	0	
190	0	60191	25869	0	
191	0	60182	25878	0	
192	0	60227	25895	0	
193	0	60282	25909	0	
194	0	60351	25929	0	
195	0	60370	25935	0	
196	0	60334	25927	0	
197	0	60304	25917	0	
198	0	60285	25920	0	
199	0	60276	25925	0	
200	0	60300	25932	0	
201	0	60316	25944	0	
202	0	60325	25949	0	
203	0	60360	25959	0	
204	0	60358	25961	0	
205	0	60365	25963	0	
206	0	60360	25971	0	
207	0	60365	25974	0	
208	0	60381	25976	0	
209	0	60392	25983	0	
210	0	60382	25983	0	
211	0	60384	25984	0	
212	0	60374	25987	0	
213	0	60377	25991	0	
214	0	60374	25992	0	
215	0	60384	25992	0	
216	0	60384	25997	0	
217	0	60403	25997	0	
218	0	60408	26007	0	
219	0	60412	26012	0	
220	0	60413	26011	0	
221	0	60411	26012	0	
222	0	60429	26017	0	
223	0	60430	26023	0	
224	0	60434	26023	0	
225	0	60449	26030	0	
226	0	60453	26037	0	
227	0	60461	26046	0	
228	0	60470	26049	0	
229	0	60474	26047	0	
230	0	60456	26040	0	
231	0	60431	26032	0	
232	0	60398	26018	0	
233	0	60371	26006	0	
234	0	60345	25988	0	
235	0	60306	25971	0	
236	0	60272	25945	0	
237	0	60244	25923	0	
238	0	60214	25904	0	
239	0	60198	25885	0	
240	0	60175	25871	0	
241	0	60151	25857	0	
242	0	60134	25843	0	
243	0	60117	25831	0	
244	0	60110	25829	0	
245	0	60106	25823	0	
246	0	60107	25827	0	
247	0	60123	25828	0	
248	0	60124	25822	0	
249	0	60135	25824	0	
250	0	60130	25821	0	
251	0	60139	25824	0	
252	0	60128	25823	0	
253	0	60115	25818	0	
254	0	60110	25813	0	
255	0	60114	25815	0	
256	0	60111	25814	0	
257	0	60112	25817	0	
258	0	60118	25817	0	
259	0	60129	25823	0	
260	0	60134	25824	0	
261	0	60137	25820	0	
262	0	60138	25824	0	
263	0	60143	25827	0	
264	0	60159	25829	0	
265	0	60153	25822	0	
266	0	60148	25817	0	
267	0	60120	25815	0	
268	0	60094	25811	0	
269	0	60092	25811	0	
270	0	60091	25806	0	
271	0	60089	25803	0	
272	0	60098	25812	0	
273	0	60119	25817	0	
274	0	60152	25822	0	
275	0	60186	25827	0	
276	0	60210	25841	0	
277	0	60236	25845	0	
278	0	60220	25842	0	
279	0	60218	25838	0	
280	0	60198	25842	0	
281	0	60201	25838	0	
282	0	60202	25842	0	
283	0	60212	25848	0	
284	0	60221	25856	0	
285	0	60243	25859	93	
286	0	60260	25869	93	
287	0	60278	25874	93	
288	0	60287	25879	93	
289	0	60292	25881	93	
290	0	60287	25885	93	
291	0	60280	25883	93	
292	0	60271	25891	93	
293	0	60277	25895	93	
294	0	60272	25897	93	
295	0	60269	25896	93	
296	0	60287	25902	93	
297	0	60291	25910	93	
298	0	60307	25918	93	
299	0	60320	25924	93	
300	0	60331	25925	93	
301	0	60336	25929	93	
302	0	60329	25929	93	
303	0	60320	25931	93	
304	0	60309	25929	93	
305	0	60325	25935	93	
306	0	60332	25944	93	
307	0	60340	25942	93	
308	0	60344	25952	93	
309	0	60349	25955	93	
310	0	60353	25964	93	
311	0	60361	25962	93	
312	0	60365	25970	93	
313	0	60386	25972	93	
314	0	60383	25978	93	
315	0	60388	25986	93	
316	0	60399	25992	93	
317	0	60409	25998	93	
318	0	60431	26001	93	
319	0	60434	25999	93	
320	0	60432	26010	93	
321	0	60420	26008	93	
322	0	60395	26006	93	
323	0	60409	26015	93	
324	0	60412	26017	93	
325	0	60440	26025	93	
326	0	60450	26033	93	
327	0	60466	26037	93	
328	0	60477	26047	93	
329	0	60475	26042	93	
330	0	60463	26042	93	
331	0	60444	26041	93	
332	0	60422	26025	93	
333	0	60390	26009	93	
334	0	60346	25989	93	
335	0	60299	25959	93	
336	0	60250	25932	93	
337	0	60226	25913	93	
338	0	60200	25892	93	
339	0	60182	25877	93	
340	0	60147	25860	93	
341	0	60129	25844	93	
342	0	60108	25836	93	
343	0	60106	25832	93	
344	0	60109	25824	93	
345	0	60128	25824	93	
346	0	60131	25825	93	
347	0	60144	25824	93	
348	0	60148	25824	93	
349	0	60136	25822	93	
350	0	60134	25827	93	
351	0	60122	25821	93	
352	0	60099	25819	93	
353	0	60113	25820	93	
354	0	60118	25825	93	
355	0	60124	25827	93	
356	0	60134	25835	93	
357	0	60141	25833	93	
358	0	60143	25837	93	
359	0	60165	25838	93	
360	0	60172	25840	93	
361	0	60182	25839	93	
362	0	60161	25841	93	
363	0	60153	25836	93	
364	0	60144	25832	93	
365	0	60134	25832	93	
366	0	60132	25827	93	
367	0	60128	25823	93	
368	0	60133	25831	93	
369	0	60160	25834	93	
370	0	60159	25831	93	
371	0	60157	25831	93	
372	0	60169	25835	93	
373	0	60174	25835	93	
374	0	60171	25831	93	
375	0	60165	25832	93	
376	0	60163	25838	93	
377	0	60156	25833	93	
378	0	60147	25837	93	
379	0	60150	25840	93	
380	0	60157	25844	93	
381	0	60170	25855	93	
382	0	60198	25859	93	
383	0	60216	25869	93	
384	0	60235	25876	93	
385	0	60247	25876	93	
386	0	60249	25883	93	
387	0	60250	25882	93	
388	0	60247	25892	93	
389	0	60266	25896	93	
390	0	60272	25900	93	
391	0	60280	25906	93	
392	0	60275	25914	93	
393	0	60285	25911	93	
394	0	60279	25917	93	
395	0	60283	25918	93	
396	0	60284	25925	93	
397	0	60295	25931	93	
398	0	60320	25939	93	
399	0	60346	25946	93	
400	0	60343	25948	93	
401	0	60354	25954	93	
402	0	60349	25953	93	
403	0	60338	25952	93	
404	0	60330	25955	93	
405	0	60349	25963	93	
406	0	60355	25970	93	
407	0	60376	25976	93	
408	0	60380	25975	93	
409	0	60380	25982	93	
410	0	60385	25986	93	
411	0	60399	25993	93	
412	0	60401	25991	93	
413	0	60398	25995	93	
414	0	60401	25994	93	
415	0	60412	26000	93	
416	0	60419	26004	93	
417	0	60422	26014	93	
418	0	60434	26015	93	
419	0	60445	26020	93	
420	0	60444	26022	93	
421	0	60452	26027	93	
422	0	60467	26032	93	
423	0	60469	26039	93	
424	0	60480	26045	93	
425	0	60484	26045	93	
426	0	60474	26046	93	
427	0	60489	26054	93	
428	0	60507	26059	93	
429	0	60516	26064	93	
430	0	60506	26058	93	
431	0	60491	26054	93	
432	0	60458	26028	93	
433	0	60417	26015	93	
434	0	60380	25987	93	
435	0	60336	25970	93	
436	0	60306	25946	93	
437	0	60292	25930	93	
438	0	60260	25906	93	
439	0	60240	25896	93	
440	0	60198	25870	93	
441	0	60142	25852	93	
442	0	60110	25840	93	
443	0	60096	25835	93	
444	0	60109	25827	93	
445	0	60149	25839	93	
446	0	60182	25842	93	
447	0	60213	25850	93	
448	0	60225	25847	93	
449	0	60217	25845	93	
450	0	60203	25839	93	
451	0	60198	25841	93	
452	0	60199	25841	93	
453	0	60193	25845	93	
454	0	60203	25851	93	
455	0	60217	25851	93	
456	0	60229	25854	93	
457	0	60222	25851	93	
458	0	60233	25853	93	
459	0	60224	25854	93	
460	0	60218	25855	93	
461	0	60213	25853	93	
462	0	60214	25853	93	
463	0	60211	25854	93	
464	0	60201	25852	93	
465	0	60194	25851	93	
466	0	60181	25847	93	
467	0	60189	25847	93	
468	0	60196	25849	93	
469	0	60195	25852	93	
470	0	60207	25850	93	
471	0	60215	25853	93	
472	0	60199	25847	93	
473	0	60200	25850	93	
474	0	60191	25847	93	
475	0	60208	25858	93	
476	0	60201	25859	93	
477	0	60206	25862	93	
478	0	60219	25864	93	
479	0	60238	25876	93	
480	0	60251	25883	93	
481	0	60255	25889	93	
482	0	60266	25886	93	
483	0	60262	25892	93	
484	0	60251	25888	93	
485	0	60260	25899	93	
486	0	60263	25903	93	
487	0	60275	25909	93	
488	0	60280	25916	93	
489	0	60298	25922	93	
490	0	60316	25928	93	
491	0	60299	25930	93	
492	0	60297	25932	93	
493	0	60300	25938	93	
494	0	60293	25936	93	
495	0	60308	25947	93	
496	0	60318	25946	93	
497	0	60324	25955	93	
498	0	60334	25960	93	
499	0	60346	25973	93	
500	0	60348	25975	93	
501	0	60358	25975	93	
502	0	60354	25976	93	
503	0	60365	25986	93	
504	0	60380	25985	93	
505	0	60389	25991	93	
506	0	60392	25997	93	
507	0	60387	25999	93	
508	0	60388	26001	93	
509	0	60382	25997	93	
510	0	60385	26005	93	
511	0	60393	26010	93	
512	0	60409	26017	93	
513	0	60421	26030	93	
514	0	60440	26028	93	
515	0	60443	26037	93	
516	0	60435	26033	93	
517	0	60429	26040	93	
518	0	60417	26039	93	
519	0	60425	26044	93	
520	0	60426	26047	93	
521	0	60440	26058	93	
522	0	60466	26064	93	
523	0	60484	26071	93	
524	0	60465	26074	93	
525	0	60460	26072	93	
526	0	60456	26071	93	
527	0	60444	26065	93	
528	0	60428	26051	93	
529	0	60391	26042	93	
530	0	60352	26017	93	
531	0	60317	25994	93	
532	0	60281	25973	93	
533	0	60257	25948	93	
534	0	60233	25927	93	
535	0	60201	25907	93	
536	0	60163	25884	93	
537	0	60143	25876	93	
538	0	60129	25863	93	
539	0	60122	25853	93	
540	0	60138	25843	93	
541	0	60140	25843	93	
542	0	60142	25839	93	
543	0	60147	25837	93	
544	0	60133	25830	93	
545	0	60120	25829	93	
546	0	60119	25829	93	
547	0	60131	25830	93	
548	0	60143	25829	93	
549	0	60142	25832	93	
550	0	60147	25830	93	
551	0	60140	25830	93	
552	0	60140	25831	93	
553	0	60148	25835	93	
554	0	60156	25832	93	
555	0	60162	25839	93	
556	0	60160	25836	93	
557	0	60157	25838	93	
558	0	60154	25833	93	
559	0	60156	25836	93	
560	0	60142	25830	93	
561	0	60129	25827	93	
562	0	60132	25827	93	
563	0	60147	25828	93	
564	0	60156	25826	93	
565	0	60139	25826	93	
566	0	60137	25823	93	
567	0	60142	25825	93	
568	0	60138	25825	93	
569	0	60140	25830	93	
570	0	60156	25829	93	
571	0	60167	25839	93	
572	0	60169	25836	93	
573	0	60178	25840	93	
574	0	60182	25840	93	
575	0	60169	25845	93	
576	0	60160	25846	93	
577	0	60168	25846	93	
578	0	60170	25852	93	
579	0	60182	25861	93	
580	0	60197	25866	93	
581	0	60207	25874	93	
582	0	60235	25881	93	
583	0	60248	25888	93	
584	0	60265	25895	93	
585	0	60268	25898	94	
586	0	60263	25897	94	
587	0	60256	25901	94	
588	0	60247	25898	94	
589	0	60267	25912	94	
590	0	60291	25917	94	
591	0	60307	25928	94	
592	0	60300	25928	94	
593	0	60310	25927	94	
594	0	60310	25932	94	
595	0	60306	25941	94	
596	0	60314	25942	94	
597	0	60323	25948	94	
598	0	60318	25946	94	
599	0	60317	25952	94	
600	0	60335	25956	94	
601	0	60342	25962	94	
602	0	60347	25967	94	
603	0	60357	25973	94	
604	0	60348	25969	94	
605	0	60353	25978	94	
606	0	60355	25977	94	
607	0	60369	25996	94	
608	0	60401	25994	94	
609	0	60410	26005	94	
610	0	60395	25996	94	
611	0	60407	26002	94	
612	0	60414	26009	94	
613	0	60426	26014	94	
614	0	60424	26018	94	
615	0	60425	26019	94	
616	0	60421	26023	94	
617	0	60430	26031	94	
618	0	60459	26031	94	
619	0	60473	26046	94	
620	0	60475	26049	94	
621	0	60478	26054	94	
622	0	60472	26048	94	
623	0	60451	26049	94	
624	0	60440	26035	94	
625	0	60415	26033	94	
626	0	60397	26020	94	
627	0	60387	26003	94	
628	0	60341	25981	94	
629	0	60311	25955	94	
630	0	60263	25928	94	
631	0	60227	25902	94	
632	0	60192	25882	94	
633	0	60174	25865	94	
634	0	60160	25850	94	
635	0	60148	25844	94	
636	0	60137	25835	94	
637	0	60126	25827	94	
638	0	60115	25814	94	
639	0	60126	25819	94	
640	0	60139	25820	94	
641	0	60143	25824	94	
642	0	60161	25827	94	
643	0	60167	25829	94	
644	0	60164	25826	94	
645	0	60150	25827	94	
646	0	60139	25821	94	
647	0	60148	25828	94	
648	0	60146	25828	94	
649	0	60150	25830	94	
650	0	60159	25833	94	
651	0	60162	25832	94	
652	0	60158	25832	94	
653	0	60154	25834	94	
654	0	60156	25829	94	
655	0	60162	25836	94	
656	0	60163	25838	94	
657	0	60166	25834	94	
658	0	60168	25830	94	
659	0	60172	25840	94	
660	0	60179	25832	94	
661	0	60183	25840	94	
662	0	60189	25834	94	
663	0	60178	25835	94	
664	0	60169	25830	94	
665	0	60177	25831	94	
666	0	60178	25836	94	
667	0	60183	25838	94	
668	0	60193	25840	94	
669	0	60191	25845	94	
670	0	60189	25846	94	
671	0	60194	25854	94	
672	0	60196	25855	94	
673	0	60213	25862	94	
674	0	60219	25863	94	
675	0	60239	25874	94	
676	0	60250	25873	94	
677	0	60255	25885	94	
678	0	60250	25886	94	
679	0	60250	25886	94	
680	0	60254	25889	94	
681	0	60246	25895	94	
682	0	60261	25902	94	
683	0	60264	25909	94	
684	0	60273	25917	94	
685	0	60283	25920	94	
686	0	60279	25924	94	
687	0	60282	25928	94	
688	0	60288	25934	94	
689	0	60298	25945	94	
690	0	60307	25948	94	
691	0	60323	25961	94	
692	0	60324	25956	94	
693	0	60320	25965	94	
694	0	60316	25961	94	
695	0	60315	25970	94	
696	0	60322	25974	94	
697	0	60351	25981	94	
698	0	60334	25983	94	
699	0	60319	25986	94	
700	0	60326	25987	94	
701	0	60336	25995	94	
702	0	60348	25997	94	
703	0	60343	26009	94	
704	0	60345	26009	94	
705	0	60340	26010	94	
706	0	60355	26014	94	
707	0	60357	26026	94	
708	0	60360	26028	94	
709	0	60368	26034	94	
710	0	60374	26038	94	
711	0	60384	26046	94	
712	0	60389	26053	94	
713	0	60375	26052	94	
714	0	60360	26052	94	
715	0	60348	26063	94	
716	0	60346	26061	94	
717	0	60339	26069	94	
718	0	60317	26062	94	
719	0	60298	26062	94	
720	0	60270	26048	94	
721	0	60232	26039	94	
722	0	60206	26027	94	
723	0	60186	26016	94	
724	0	60160	25996	94	
725	0	60137	25981	94	
726	0	60110	25964	94	
727	0	60091	25950	94	
728	0	60087	25946	94	
729	0	60079	25937	94	
730	0	60076	25927	94	
731	0	60076	25927	94	
732	0	60071	25922	94	
733	0	60083	25924	94	
734	0	60094	25921	94	
735	0	60088	25927	94	
736	0	60086	25923	94	
737	0	60083	25929	94	
738	0	60097	25935	94	
739	0	60133	25948	94	
740	0	60163	25955	94	
741	0	60173	25960	94	
742	0	60194	25969	94	
743	0	60217	25975	94	
744	0	60215	25970	94	
745	0	60223	25979	94	
746	0	60232	25982	94	
747	0	60255	25987	94	
748	0	60291	25993	94	
749	0	60325	25998	94	
750	0	60347	25997	94	
751	0	60343	25999	94	
752	0	60335	25991	94	
753	0	60349	25987	94	
754	0	60341	25991	94	
755	0	60359	25992	94	
756	0	60378	25995	94	
757	0	60409	26003	94	
758	0	60414	25998	94	
759	0	60418	26003	94	
760	0	60404	25993	94	
761	0	60380	25988	94	
762	0	60356	25981	94	
763	0	60356	25985	94	
764	0	60341	25982	94	
765	0	60333	25983	94	
766	0	60343	25991	94	
767	0	60370	26001	94	
768	0	60382	26001	94	
769	0	60397	26013	94	
770	0	60401	26013	94	
771	0	60397	26021	94	
772	0	60394	26022	94	
773	0	60420	26034	94	
774	0	60432	26032	94	
775	0	60433	26036	94	
776	0	60414	26039	94	
777	0	60422	26041	94	
778	0	60433	26044	94	
779	0	60443	26055	94	
780	0	60450	26061	94	
781	0	60456	26065	94	
782	0	60461	26066	94	
783	0	60472	26072	94	
784	0	60481	26081	94	
785	0	60496	26089	94	
786	0	60507	26093	94	
787	0	60509	26093	94	
788	0	60497	26090	94	
789	0	60481	26095	94	
790	0	60474	26091	94	
791	0	60470	26093	94	
792	0	60472	26095	94	
793	0	60495	26102	94	
794	0	60514	26109	94	
795	0	60542	26124	94	
796	0	60557	26130	94	
797	0	60573	26136	94	
798	0	60578	26133	94	
799	0	60574	26140	94	
800	0	60562	26136	94	
801	0	60556	26140	94	
802	0	60577	26142	94	
803	0	60579	26152	94	
804	0	60578	26151	94	
805	0	60571	26154	94	
806	0	60566	26136	94	
807	0	60537	26130	94	
808	0	60500	26112	94	
809	0	60476	26095	94	
810	0	60442	26073	94	
811	0	60411	26056	94	
812	0	60396	26044	94	
813	0	60376	26034	94	
814	0	60367	26013	94	
815	0	60340	25999	94	
816	0	60334	25988	94	
817	0	60325	25986	94	
818	0	60351	25980	94	
819	0	60338	25982	94	
820	0	60342	25976	94	
821	0	60332	25975	94	
822	0	60322	25970	94	
823	0	60319	25973	94	
824	0	60316	25973	94	
825	0	60323	25971	94	
826	0	60317	25974	94	
827	0	60334	25977	94	
828	0	60347	25981	94	
829	0	60355	25989	94	
830	0	60363	25990	94	
831	0	60360	25990	94	
832	0	60350	25985	94	
833	0	60350	25987	94	
834	0	60331	25983	94	
835	0	60335	25993	94	
836	0	60330	25985	94	
837	0	60334	25993	94	
838	0	60337	25989	94	
839	0	60341	25992	94	
840	0	60348	25993	94	
841	0	60349	25997	94	
842	0	60340	25989	94	
843	0	60345	25994	94	
844	0	60356	25990	94	
845	0	60355	25994	94	
846	0	60354	25990	94	
847	0	60341	25988	94	
848	0	60335	25992	94	
849	0	60320	25989	94	
850	0	60339	25994	94	
851	0	60359	26001	94	
852	0	60389	26009	94	
853	0	60422	26019	94	
854	0	60438	26021	94	
855	0	60428	26026	94	
856	0	60436	26030	94	
857	0	60407	26024	94	
858	0	60392	26021	94	
859	0	60393	26030	94	
860	0	60404	26037	94	
861	0	60434	26045	94	
862	0	60447	26052	94	
863	0	60464	26058	94	
864	0	60491	26064	94	
865	0	60503	26070	94	
866	0	60512	26075	94	
867	0	60487	26077	94	
868	0	60477	26065	94	
869	0	60470	26074	94	
870	0	60489	26079	94	
871	0	60502	26089	94	
872	0	60533	26098	94	
873	0	60540	26101	94	
874	0	60540	26103	94	
875	0	60544	26108	94	
876	0	60550	26107	94	
877	0	60561	26110	94	
878	0	60564	26112	94	
879	0	60572	26118	94	
880	0	60575	26116	94	
881	0	60568	26119	94	
882	0	60562	26120	94	
883	0	60564	26130	94	
884	0	60565	26128	94	
885	0	60565	26138	92	
886	0	60562	26139	92	
887	0	60572	26148	92	
888	0	60579	26152	92	
889	0	60600	26164	92	
890	0	60614	26163	92	
891	0	60623	26170	92	
892	0	60631	26171	92	
893	0	60614	26173	92	
894	0	60626	26181	92	
895	0	60635	26186	92	
896	0	60614	26183	92	
897	0	60632	26193	92	
898	0	60647	26194	92	
899	0	60658	26209	92	
900	0	60667	26213	92	
901	0	60663	26213	92	
902	0	60660	26209	92	
903	0	60631	26197	92	
904	0	60610	26187	92	
905	0	60576	26175	92	
906	0	60555	26160	92	
907	0	60526	26139	92	
908	0	60494	26122	92	
909	0	60464	26111	92	
910	0	60441	26087	92	
911	0	60424	26073	92	
912	0	60400	26060	92	
913	0	60398	26055	92	
914	0	60395	26047	92	
915	0	60395	26048	92	
916	0	60401	26048	92	
917	0	60403	26051	92	
918	0	60398	26043	92	
919	0	60403	26049	92	
920	0	60390	26040	92	
921	0	60397	26046	92	
922	0	60404	26043	92	
923	0	60402	26051	92	
924	0	60415	26050	92	
925	0	60417	26055	92	
926	0	60419	26054	92	
927	0	60412	26057	92	
928	0	60409	26048	92	
929	0	60400	26054	92	
930	0	60402	26053	92	
931	0	60403	26056	92	
932	0	60398	26056	92	
933	0	60392	26055	92	
934	0	60395	26055	92	
935	0	60399	26056	92	
936	0	60413	26058	92	
937	0	60417	26061	92	
938	0	60421	26066	92	
939	0	60432	26066	92	
940	0	60412	26061	92	
941	0	60407	26056	92	
942	0	60408	26063	92	
943	0	60402	26058	92	
944	0	60399	26061	92	
945	0	60405	26067	92	
946	0	60406	26066	92	
947	0	60424	26072	92	
948	0	60416	26073	92	
949	0	60422	26073	92	
950	0	60410	26074	92	
951	0	60432	26082	92	
952	0	60461	26088	92	
953	0	60469	26098	92	
954	0	60484	26098	92	
955	0	60470	26102	92	
956	0	60464	26103	92	
957	0	60468	26111	92	
958	0	60491	26117	92	
959	0	60511	26116	92	
960	0	60514	26122	92	
961	0	60511	26128	92	
962	0	60521	26129	92	
963	0	60516	26133	92	
964	0	60508	26132	92	
965	0	60515	26138	92	
966	0	60507	26139	92	
967	0	60507	26143	92	
968	0	60517	26145	92	
969	0	60542	26153	92	
970	0	60591	26162	92	
971	0	60614	26178	92	
972	0	60631	26179	92	
973	0	60621	26182	92	
974	0	60599	26173	92	
975	0	60576	26174	92	
976	0	60554	26173	92	
977	0	60558	26174	92	
978	0	60560	26179	92	
979	0	60604	26192	92	
980	0	60636	26199	92	
981	0	60663	26211	92	
982	0	60691	26214	92	
983	0	60697	26214	92	
984	0	60672	26206	92	
985	0	60645	26206	92	
986	0	60632	26203	92	
987	0	60636	26209	92	
988	0	60630	26211	92	
989	0	60654	26216	92	
990	0	60655	26225	92	
991	0	60670	26229	92	
992	0	60680	26239	92	
993	0	60692	26238	92	
994	0	60699	26243	92	
995	0	60710	26249	92	
996	0	60714	26251	92	
997	0	60718	26256	92	
998	0	60734	26265	92	
999	0	60739	26272	92	
1000	0	60748	26271	92	
1001	0	60741	26266	92	
1002	0	60726	26260	92	
1003	0	60711	26254	92	
1004	0	60671	26239	92	
1005	0	60646	26229	92	
1006	0	60606	26211	92	
1007	0	60580	26194	92	
1008	0	60560	26183	92	
1009	0	60537	26170	92	
1010	0	60514	26154	92	
1011	0	60491	26138	92	
1012	0	60482	26128	92	
1013	0	60484	26124	92	
1014	0	60477	26120	92	
1015	0	60494	26123	92	
1016	0	60508	26120	92	
1017	0	60501	26125	92	
1018	0	60496	26116	92	
1019	0	60479	26116	92	
1020	0	60473	26118	92	
1021	0	60470	26118	92	
1022	0	60483	26116	92	
1023	0	60489	26120	92	
1024	0	60491	26126	92	
1025	0	60493	26125	92	
1026	0	60498	26118	92	
1027	0	60489	26123	92	
1028	0	60503	26124	92	
1029	0	60493	26126	92	
1030	0	60488	26126	92	
1031	0	60484	26125	92	
1032	0	60487	26129	92	
1033	0	60498	26129	92	
1034	0	60500	26134	92	
1035	0	60500	26133	92	
1036	0	60507	26128	92	
1037	0	60498	26127	92	
1038	0	60482	26123	92	
1039	0	60478	26128	92	
1040	0	60476	26125	92	
1041	0	60482	26129	92	
1042	0	60485	26125	92	
1043	0	60494	26129	92	
1044	0	60500	26136	92	
1045	0	60511	26133	92	
1046	0	60489	26131	92	
1047	0	60484	26141	92	
1048	0	60498	26142	92	
1049	0	60497	26145	92	
1050	0	60512	26148	92	
1051	0	60537	26153	92	
1052	0	60543	26157	92	
1053	0	60545	26159	92	
1054	0	60542	26162	92	
1055	0	60540	26160	92	
1056	0	60533	26162	92	
1057	0	60543	26170	92	
1058	0	60561	26178	92	
1059	0	60578	26181	92	
1060	0	60583	26189	92	
1061	0	60592	26196	92	
1062	0	60587	26195	92	
1063	0	60588	26196	92	
1064	0	60581	26198	92	
1065	0	60595	26205	92	
1066	0	60618	26212	92	
1067	0	60631	26214	92	
1068	0	60640	26221	92	
1069	0	60640	26226	92	
1070	0	60629	26225	92	
1071	0	60637	26225	92	
1072	0	60635	26230	92	
1073	0	60637	26232	92	
1074	0	60635	26233	92	
1075	0	60646	26237	92	
1076	0	60663	26245	92	
1077	0	60680	26247	92	
1078	0	60685	26250	92	
1079	0	60703	26255	92	
1080	0	60699	26251	92	
1081	0	60691	26260	92	
1082	0	60693	26262	92	
1083	0	60679	26261	92	
1084	0	60724	26276	92	
1085	0	60728	26275	92	
1086	0	60714	26277	92	
1087	0	60694	26279	92	
1088	0	60686	26277	92	
1089	0	60695	26284	92	
1090	0	60707	26292	92	
1091	0	60720	26296	92	
1092	0	60727	26301	92	
1093	0	60731	26306	92	
1094	0	60751	26312	92	
1095	0	60751	26315	92	
1096	0	60776	26327	92	
1097	0	60795	26326	92	
1098	0	60793	26329	92	
1099	0	60780	26325	92	
1100	0	60757	26313	92	
1101	0	60734	26304	92	
1102	0	60699	26295	92	
1103	0	60676	26281	92	
1104	0	60658	26267	92	
1105	0	60629	26257	92	
1106	0	60604	26240	92	
1107	0	60584	26223	92	
1108	0	60564	26210	92	
1109	0	60542	26194	92	
1110	0	60529	26183	92	
1111	0	60527	26179	92	
1112	0	60522	26178	92	
1113	0	60533	26173	92	
1114	0	60534	26171	92	
1115	0	60552	26172	92	
1116	0	60545	26173	92	
1117	0	60558	26174	92	
1118	0	60552	26175	92	
1119	0	60557	26176	92	
1120	0	60558	26175	92	
1121	0	60559	26172	92	
1122	0	60544	26166	92	
1123	0	60531	26162	92	
1124	0	60519	26164	92	
1125	0	60534	26168	92	
1126	0	60540	26170	92	
1127	0	60543	26166	92	
1128	0	60545	26167	92	
1129	0	60536	26164	92	
1130	0	60532	26168	92	
1131	0	60535	26161	92	
1132	0	60525	26157	92	
1133	0	60522	26158	92	
1134	0	60521	26160	92	
1135	0	60521	26161	92	
1136	0	60504	26153	92	
1137	0	60509	26152	92	
1138	0	60514	26156	92	
1139	0	60520	26160	92	
1140	0	60529	26161	92	
1141	0	60547	26164	92	
1142	0	60519	26156	92	
1143	0	60499	26149	92	
1144	0	60483	26151	92	
1145	0	60489	26153	92	
1146	0	60503	26160	92	
1147	0	60510	26159	92	
1148	0	60542	26165	92	
1149	0	60558	26173	92	
1150	0	60559	26176	92	
1151	0	60560	26177	92	
1152	0	60562	26177	92	
1153	0	60564	26179	92	
1154	0	60571	26188	92	
1155	0	60568	26188	92	
1156	0	60573	26191	92	
1157	0	60595	26199	92	
1158	0	60599	26204	92	
1159	0	60606	26206	92	
1160	0	60594	26205	92	
1161	0	60594	26207	92	
1162	0	60601	26215	92	
1163	0	60604	26216	92	
1164	0	60602	26218	92	
1165	0	60605	26217	92	
1166	0	60600	26217	92	
1167	0	60586	26219	92	
1168	0	60582	26218	92	
1169	0	60593	26224	92	
1170	0	60597	26227	92	
1171	0	60608	26234	92	
1172	0	60619	26240	92	
1173	0	60630	26246	92	
1174	0	60623	26245	92	
1175	0	60621	26247	92	
1176	0	60612	26248	92	
1177	0	60611	26249	92	
1178	0	60599	26252	92	
1179	0	60610	26251	92	
1180	0	60593	26255	92	
1181	0	60609	26258	92	
1182	0	60600	26252	92	
1183	0	60599	26265	92	
1184	0	60602	26266	92	
1185	0	60596	26264	93	
1186	0	60576	26269	93	
1187	0	60578	26270	93	
1188	0	60583	26277	93	
1189	0	60603	26281	93	
1190	0	60606	26287	93	
1191	0	60610	26291	93	
1192	0	60623	26298	93	
1193	0	60641	26304	93	
1194	0	60652	26310	93	
1195	0	60655	26314	93	
1196	0	60657	26314	93	
1197	0	60650	26318	93	
1198	0	60634	26311	93	
1199	0	60607	26302	93	
1200	0	60579	26296	93	
1201	0	60553	26286	93	
1202	0	60520	26267	93	
1203	0	60486	26251	93	
1204	0	60454	26242	93	
1205	0	60417	26223	93	
1206	0	60395	26211	93	
1207	0	60363	26198	93	
1208	0	60344	26183	93	
1209	0	60334	26171	93	
1210	0	60314	26169	93	
1211	0	60300	26156	93	
1212	0	60299	26158	93	
1213	0	60295	26157	93	
1214	0	60307	26151	93	
1215	0	60303	26149	93	
1216	0	60310	26156	93	
1217	0	60302	26150	93	
1218	0	60290	26148	93	
1219	0	60292	26144	93	
1220	0	60277	26149	93	
1221	0	60276	26147	93	
1222	0	60271	26147	93	
1223	0	60266	26140	93	
1224	0	60258	26138	93	
1225	0	60238	26141	93	
1226	0	60235	26139	93	
1227	0	60228	26138	93	
1228	0	60218	26138	93	
1229	0	60210	26136	93	
1230	0	60197	26135	93	
1231	0	60204	26134	93	
1232	0	60201	26132	93	
1233	0	60204	26130	93	
1234	0	60205	26130	93	
1235	0	60196	26128	93	
1236	0	60189	26129	93	
1237	0	60196	26132	93	
1238	0	60194	26127	93	
1239	0	60187	26129	93	
1240	0	60198	26134	93	
1241	0	60229	26137	93	
1242	0	60257	26147	93	
1243	0	60278	26150	93	
1244	0	60299	26158	93	
1245	0	60315	26155	93	
1246	0	60287	26148	93	
1247	0	60298	26156	93	
1248	0	60303	26156	93	
1249	0	60307	26157	93	
1250	0	60299	26164	93	
1251	0	60296	26161	93	
1252	0	60299	26167	93	
1253	0	60316	26164	93	
1254	0	60318	26168	93	
1255	0	60323	26176	93	
1256	0	60321	26177	93	
1257	0	60315	26176	93	
1258	0	60298	26177	93	
1259	0	60290	26178	93	
1260	0	60286	26175	93	
1261	0	60289	26177	93	
1262	0	60289	26185	93	
1263	0	60290	26188	93	
1264	0	60308	26196	93	
1265	0	60344	26202	93	
1266	0	60357	26212	93	
1267	0	60359	26213	93	
1268	0	60375	26218	93	
1269	0	60373	26218	93	
1270	0	60355	26217	93	
1271	0	60354	26215	93	
1272	0	60346	26215	93	
1273	0	60352	26218	93	
1274	0	60345	26219	93	
1275	0	60353	26225	93	
1276	0	60364	26225	93	
1277	0	60369	26232	93	
1278	0	60375	26234	93	
1279	0	60385	26239	93	
1280	0	60384	26238	93	
1281	0	60383	26238	93	
1282	0	60392	26247	93	
1283	0	60401	26249	93	
1284	0	60404	26251	93	
1285	0	60403	26252	93	
1286	0	60407	26258	93	
1287	0	60416	26258	93	
1288	0	60426	26262	93	
1289	0	60420	26263	93	
1290	0	60405	26258	93	
1291	0	60409	26262	93	
1292	0	60401	26261	93	
1293	0	60384	26252	93	
1294	0	60371	26248	93	
1295	0	60342	26234	93	
1296	0	60304	26221	93	
1297	0	60270	26200	93	
1298	0	60239	26183	93	
1299	0	60220	26162	93	
1300	0	60200	26152	93	
1301	0	60177	26137	93	
1302	0	60150	26126	93	
1303	0	60138	26109	93	
1304	0	60119	26108	93	
1305	0	60117	26093	93	
1306	0	60120	26094	93	
1307	0	60110	26090	93	
1308	0	60122	26085	93	
1309	0	60122	26092	93	
1310	0	60126	26086	93	
1311	0	60127	26088	93	
1312	0	60126	26085	93	
1313	0	60121	26082	93	
1314	0	60125	26081	93	
1315	0	60126	26086	93	
1316	0	60137	26089	93	
1317	0	60140	26091	93	
1318	0	60132	26093	93	
1319	0	60128	26088	93	
1320	0	60119	26090	93	
1321	0	60121	26088	93	
1322	0	60123	26086	93	
1323	0	60123	26090	93	
1324	0	60125	26088	93	
1325	0	60115	26087	93	
1326	0	60118	26086	93	
1327	0	60120	26088	93	
1328	0	60125	26081	93	
1329	0	60109	26079	93	
1330	0	60108	26080	93	
1331	0	60095	26072	93	
1332	0	60091	26072	93	
1333	0	60089	26068	93	
1334	0	60089	26068	93	
1335	0	60092	26071	93	
1336	0	60092	26071	93	
1337	0	60102	26073	93	
1338	0	60114	26077	93	
1339	0	60125	26079	93	
1340	0	60121	26083	93	
1341	0	60128	26086	93	
1342	0	60131	26087	93	
1343	0	60135	26088	93	
1344	0	60153	26091	93	
1345	0	60153	26104	93	
1346	0	60160	26102	93	
1347	0	60154	26104	93	
1348	0	60166	26103	93	
1349	0	60173	26105	93	
1350	0	60172	26114	93	
1351	0	60177	26115	93	
1352	0	60188	26122	93	
1353	0	60196	26127	93	
1354	0	60201	26134	93	
1355	0	60217	26132	93	
1356	0	60214	26133	93	
1357	0	60218	26132	93	
1358	0	60222	26143	93	
1359	0	60237	26144	93	
1360	0	60240	26149	93	
1361	0	60235	26146	93	
1362	0	60242	26151	93	
1363	0	60250	26151	93	
1364	0	60249	26156	93	
1365	0	60255	26162	93	
1366	0	60263	26159	93	
1367	0	60271	26168	93	
1368	0	60281	26170	93	
1369	0	60280	26167	93	
1370	0	60278	26173	93	
1371	0	60285	26174	93	
1372	0	60289	26179	93	
1373	0	60305	26174	93	
1374	0	60316	26182	93	
1375	0	60321	26184	93	
1376	0	60324	26191	93	
1377	0	60327	26191	93	
1378	0	60330	26193	93	
1379	0	60333	26199	93	
1380	0	60324	26192	93	
1381	0	60310	26189	93	
1382	0	60279	26176	93	
1383	0	60259	26159	93	
1384	0	60225	26145	93	
1385	0	60200	26130	93	
1386	0	60165	26112	93	
1387	0	60130	26092	93	
1388	0	60112	26072	93	
1389	0	60079	26055	93	
1390	0	60060	26034	93	
1391	0	60030	26022	93	
1392	0	60026	26012	93	
1393	0	60009	26003	93	
1394	0	60014	25993	93	
1395	0	60000	25987	93	
1396	0	59995	25984	93	
1397	0	59992	25978	93	
1398	0	60002	25984	93	
1399	0	59997	25981	93	
1400	0	59993	25976	93	
1401	0	59998	25974	93	
1402	0	59998	25976	93	
1403	0	60001	25972	93	
1404	0	60000	25975	93	
1405	0	59996	25972	93	
1406	0	59987	25971	93	
1407	0	59990	25968	93	
1408	0	59988	25964	93	
1409	0	59981	25966	93	
1410	0	59980	25967	93	
1411	0	59982	25964	93	
1412	0	59980	25965	93	
1413	0	59978	25963	93	
1414	0	59974	25959	93	
1415	0	59971	25952	93	
1416	0	59962	25952	93	
1417	0	59954	25948	93	
1418	0	59952	25946	93	
1419	0	59955	25946	93	
1420	0	59954	25949	93	
1421	0	59950	25943	93	
1422	0	59960	25947	93	
1423	0	59957	25945	93	
1424	0	59963	25944	93	
1425	0	59967	25941	93	
1426	0	59966	25941	93	
1427	0	59972	25950	93	
1428	0	59975	25952	93	
1429	0	59988	25950	93	
1430	0	59975	25956	93	
1431	0	59991	25958	93	
1432	0	60003	25968	93	
1433	0	60005	25969	93	
1434	0	60002	25970	93	
1435	0	60015	25976	93	
1436	0	60021	25974	93	
1437	0	60028	25983	93	
1438	0	60034	25985	93	
1439	0	60045	25994	93	
1440	0	60058	25996	93	
1441	0	60058	25998	93	
1442	0	60060	26003	93	
1443	0	60077	26008	93	
1444	0	60070	26012	93	
1445	0	60080	26012	93	
1446	0	60079	26015	93	
1447	0	60088	26018	93	
1448	0	60091	26014	93	
1449	0	60091	26021	93	
1450	0	60091	26025	93	
1451	0	60103	26027	93	
1452	0	60107	26031	93	
1453	0	60115	26033	93	
1454	0	60121	26038	93	
1455	0	60125	26044	93	
1456	0	60132	26046	93	
1457	0	60151	26041	93	
1458	0	60141	26047	93	
1459	0	60138	26044	93	
1460	0	60117	26043	93	
1461	0	60100	26028	93	
1462	0	60072	26017	93	
1463	0	60056	26002	93	
1464	0	60022	25984	93	
1465	0	59985	25963	93	
1466	0	59957	25937	93	
1467	0	59940	25923	93	
1468	0	59913	25910	93	
1469	0	59894	25890	93	
1470	0	59866	25877	93	
1471	0	59854	25863	93	
1472	0	59842	25859	93	
1473	0	59838	25854	93	
1474	0	59840	25848	93	
1475	0	59834	25841	93	
1476	0	59828	25845	93	
1477	0	59835	25840	93	
1478	0	59842	25840	93	
1479	0	59843	25835	93	
1480	0	59836	25836	93	
1481	0	59848	25835	93	
1482	0	59840	25836	93	
1483	0	59849	25835	93	
1484	0	59837	25839	93	
1485	0	59842	25832	92	
1486	0	59840	25832	92	
1487	0	59839	25832	92	
1488	0	59838	25835	92	
1489	0	59837	25834	92	
1490	0	59849	25840	92	
1491	0	59852	25838	92	
1492	0	59851	25840	92	
1493	0	59844	25838	92	
1494	0	59854	25833	92	
1495	0	59849	25836	92	
1496	0	59840	25831	92	
1497	0	59836	25833	92	
1498	0	59845	25830	92	
1499	0	59845	25834	92	
1500	0	59843	25832	92	
1501	0	59844	25833	92	
1502	0	59853	25833	92	
1503	0	59858	25833	92	
1504	0	59858	25838	92	
1505	0	59870	25846	92	
1506	0	59871	25848	92	
1507	0	59877	25845	92	
1508	0	59891	25850	92	
1509	0	59897	25854	92	
1510	0	59899	25859	92	
1511	0	59922	25868	92	
1512	0	59923	25868	92	
1513	0	59935	25872	92	
1514	0	59933	25876	92	
1515	0	59947	25882	92	
1516	0	59948	25888	92	
1517	0	59964	25893	92	
1518	0	59973	25899	92	
1519	0	59977	25906	92	
1520	0	59989	25903	92	
1521	0	59995	25909	92	
1522	0	59997	25917	92	
1523	0	60012	25916	92	
1524	0	60017	25922	92	
1525	0	60014	25927	92	
1526	0	60020	25931	92	
1527	0	60035	25936	92	
1528	0	60039	25938	92	
1529	0	60039	25939	92	
1530	0	60046	25943	92	
1531	0	60051	25943	92	
1532	0	60069	25952	92	
1533	0	60078	25954	92	
1534	0	60079	25961	92	
1535	0	60079	25956	92	
1536	0	60064	25959	92	
1537	0	60052	25948	92	
1538	0	60039	25939	92	
1539	0	60006	25926	92	
1540	0	59982	25912	92	
1541	0	59948	25888	92	
1542	0	59919	25871	92	
1543	0	59886	25850	92	
1544	0	59866	25835	92	
1545	0	59837	25816	92	
1546	0	59826	25805	92	
1547	0	59812	25793	92	
1548	0	59805	25787	92	
1549	0	59802	25780	92	
1550	0	59798	25774	92	
1551	0	59787	25773	92	
1552	0	59794	25767	92	
1553	0	59795	25767	92	
1554	0	59790	25769	92	
1555	0	59795	25770	92	
1556	0	59805	25770	92	
1557	0	59810	25773	92	
1558	0	59811	25771	92	
1559	0	59807	25770	92	
1560	0	59817	25774	92	
1561	0	59820	25773	92	
1562	0	59819	25781	92	
1563	0	59819	25777	92	
1564	0	59827	25784	92	
1565	0	59822	25781	92	
1566	0	59826	25784	92	
1567	0	59819	25785	92	
1568	0	59836	25788	92	
1569	0	59823	25786	92	
1570	0	59836	25785	92	
1571	0	59830	25784	92	
1572	0	59829	25780	92	
1573	0	59829	25778	92	
1574	0	59826	25779	92	
1575	0	59828	25784	92	
1576	0	59840	25787	92	
1577	0	59845	25785	92	
1578	0	59855	25787	92	
1579	0	59851	25791	92	
1580	0	59856	25792	92	
1581	0	59856	25794	92	
1582	0	59860	25799	92	
1583	0	59870	25799	92	
1584	0	59883	25805	92	
1585	0	59893	25808	92	
1586	0	59895	25819	92	
1587	0	59909	25822	92	
1588	0	59918	25827	92	
1589	0	59929	25832	92	
1590	0	59939	25839	92	
1591	0	59955	25843	92	
1592	0	59960	25849	92	
1593	0	59967	25854	92	
1594	0	59977	25856	92	
1595	0	59976	25868	92	
1596	0	59988	25867	92	
1597	0	59995	25872	92	
1598	0	60002	25877	92	
1599	0	60012	25880	92	
1600	0	60023	25891	92	
1601	0	60032	25892	92	
1602	0	60034	25894	92	
1603	0	60041	25896	92	
1604	0	60044	25905	92	
1605	0	60058	25904	92	
1606	0	60055	25908	92	
1607	0	60060	25919	92	
1608	0	60068	25915	92	
1609	0	60077	25917	92	
1610	0	60074	25925	92	
1611	0	60081	25931	92	
1612	0	60089	25939	92	
1613	0	60089	25934	92	
1614	0	60093	25939	92	
1615	0	60098	25946	92	
1616	0	60100	25946	92	
1617	0	60107	25951	92	
1618	0	60120	25959	92	
1619	0	60120	25960	92	
1620	0	60123	25960	92	
1621	0	60108	25956	92	
1622	0	60091	25949	92	
1623	0	60060	25934	92	
1624	0	60030	25920	92	
1625	0	60006	25897	92	
1626	0	59965	25880	92	
1627	0	59941	25854	92	
1628	0	59908	25839	92	
1629	0	59887	25822	92	
1630	0	59868	25807	92	
1631	0	59858	25789	92	
1632	0	59839	25786	92	
1633	0	59841	25778	92	
1634	0	59829	25776	92	
1635	0	59829	25767	92	
1636	0	59829	25766	92	
1637	0	59837	25767	92	
1638	0	59842	25767	92	
1639	0	59840	25765	92	
1640	0	59841	25770	92	
1641	0	59846	25768	92	
1642	0	59851	25768	92	
1643	0	59855	25770	92	
1644	0	59860	25781	92	
1645	0	59870	25776	92	
1646	0	59868	25782	92	
1647	0	59879	25786	92	
1648	0	59884	25786	92	
1649	0	59881	25782	92	
1650	0	59879	25782	92	
1651	0	59872	25785	92	
1652	0	59884	25784	92	
1653	0	59880	25784	92	
1654	0	59874	25778	92	
1655	0	59865	25781	92	
1656	0	59869	25778	92	
1657	0	59868	25778	92	
1658	0	59873	25779	92	
1659	0	59863	25777	92	
1660	0	59873	25783	92	
1661	0	59884	25780	92	
1662	0	59883	25780	92	
1663	0	59886	25781	92	
1664	0	59885	25781	92	
1665	0	59888	25788	92	
1666	0	59904	25794	92	
1667	0	59903	25792	92	
1668	0	59920	25800	92	
1669	0	59926	25802	92	
1670	0	59929	25812	92	
1671	0	59933	25814	92	
1672	0	59950	25821	92	
1673	0	59959	25826	92	
1674	0	59963	25831	92	
1675	0	59976	25836	92	
1676	0	59984	25841	92	
1677	0	59982	25844	92	
1678	0	60002	25852	92	
1679	0	60001	25856	92	
1680	0	60013	25864	92	
1681	0	60028	25872	92	
1682	0	60031	25869	92	
1683	0	60037	25872	92	
1684	0	60045	25878	92	
1685	0	60045	25882	92	
1686	0	60060	25887	92	
1687	0	60069	25892	92	
1688	0	60068	25897	92	
1689	0	60074	25894	92	
1690	0	60086	25896	92	
1691	0	60080	25901	92	
1692	0	60088	25910	92	
1693	0	60092	25912	92	
1694	0	60100	25917	92	
1695	0	60108	25919	92	
1696	0	60113	25922	92	
1697	0	60124	25926	92	
1698	0	60134	25935	92	
1699	0	60136	25936	92	
1700	0	60152	25943	92	
1701	0	60156	25941	92	
1702	0	60154	25946	92	
1703	0	60160	25949	92	
1704	0	60164	25945	92	
1705	0	60148	25942	92	
1706	0	60133	25933	92	
1707	0	60103	25918	92	
1708	0	60069	25906	92	
1709	0	60039	25883	92	
1710	0	60006	25861	92	
1711	0	59971	25841	92	
1712	0	59936	25815	92	
1713	0	59909	25798	92	
1714	0	59894	25787	92	
1715	0	59866	25767	92	
1716	0	59862	25762	92	
1717	0	59855	25752	92	
1718	0	59846	25746	92	
1719	0	59852	25745	92	
1720	0	59844	25738	92	
1721	0	59852	25740	92	
1722	0	59857	25736	92	
1723	0	59854	25738	92	
1724	0	59855	25734	92	
1725	0	59852	25739	92	
1726	0	59848	25739	92	
1727	0	59846	25734	92	
1728	0	59853	25735	92	
1729	0	59859	25737	92	
1730	0	59862	25749	92	
1731	0	59867	25747	92	
1732	0	59874	25751	92	
1733	0	59872	25753	92	
1734	0	59867	25749	92	
1735	0	59874	25745	92	
1736	0	59864	25749	92	
1737	0	59871	25745	92	
1738	0	59862	25749	92	
1739	0	59863	25748	92	
1740	0	59870	25742	92	
1741	0	59866	25747	92	
1742	0	59862	25743	92	
1743	0	59865	25745	92	
1744	0	59864	25741	92	
1745	0	59875	25745	92	
1746	0	59876	25750	92	
1747	0	59878	25750	92	
1748	0	59880	25758	92	
1749	0	59886	25759	92	
1750	0	59903	25761	92	
1751	0	59902	25766	92	
1752	0	59912	25770	92	
1753	0	59908	25772	92	
1754	0	59928	25781	92	
1755	0	59933	25785	92	
1756	0	59941	25790	92	
1757	0	59953	25793	92	
1758	0	59956	25797	92	
1759	0	59964	25804	92	
1760	0	59974	25809	92	
1761	0	59979	25808	92	
1762	0	59998	25821	92	
1763	0	60015	25824	92	
1764	0	60016	25829	92	
1765	0	60012	25835	92	
1766	0	60029	25841	92	
1767	0	60037	25843	92	
1768	0	60045	25847	92	
1769	0	60044	25854	92	
1770	0	60061	25861	92	
1771	0	60065	25865	92	
1772	0	60078	25865	92	
1773	0	60075	25868	92	
1774	0	60082	25874	92	
1775	0	60087	25875	92	
1776	0	60091	25877	92	
1777	0	60095	25886	92	
1778	0	60101	25896	92	
1779	0	60107	25893	92	
1780	0	60112	25898	92	
1781	0	60118	25899	92	
1782	0	60133	25906	92	
1783	0	60138	25908	92	
1784	0	60152	25915	92	
1785	0	60149	25918	93	
1786	0	60154	25925	93	
1787	0	60168	25924	93	
1788	0	60181	25937	93	
1789	0	60176	25935	93	
1790	0	60198	25942	93	
1791	0	60197	25950	93	
1792	0	60206	25950	93	
1793	0	60217	25954	93	
1794	0	60231	25963	93	
1795	0	60228	25967	93	
1796	0	60236	25967	93	
1797	0	60215	25965	93	
1798	0	60210	25958	93	
1799	0	60174	25943	93	
1800	0	60143	25926	93	
1801	0	60109	25903	93	
1802	0	60066	25883	93	
1803	0	60023	25853	93	
1804	0	59986	25828	93	
1805	0	59952	25802	93	
1806	0	59919	25787	93	
1807	0	59910	25767	93	
1808	0	59889	25754	93	
1809	0	59870	25747	93	
1810	0	59868	25741	93	
1811	0	59865	25732	93	
1812	0	59860	25731	93	
1813	0	59862	25728	93	
1814	0	59865	25725	93	
1815	0	59865	25722	93	
1816	0	59859	25721	93	
1817	0	59859	25723	93	
1818	0	59862	25721	93	
1819	0	59854	25719	93	
1820	0	59852	25718	93	
1821	0	59856	25721	93	
1822	0	59861	25724	93	
1823	0	59870	25725	93	
1824	0	59875	25727	93	
1825	0	59869	25727	93	
1826	0	59878	25724	93	
1827	0	59873	25728	93	
1828	0	59872	25729	93	
1829	0	59873	25722	93	
1830	0	59870	25725	93	
1831	0	59870	25722	93	
1832	0	59866	25725	93	
1833	0	59863	25722	93	
1834	0	59875	25722	93	
1835	0	59866	25723	93	
1836	0	59865	25720	93	
1837	0	59867	25723	93	
1838	0	59866	25719	93	
1839	0	59878	25725	93	
1840	0	59883	25724	93	
1841	0	59887	25730	93	
1842	0	59896	25730	93	
1843	0	59902	25741	93	
1844	0	59914	25747	93	
1845	0	59916	25752	93	
1846	0	59931	25753	93	
1847	0	59936	25757	93	
1848	0	59943	25765	93	
1849	0	59946	25774	93	
1850	0	59965	25776	93	
1851	0	59977	25780	93	
1852	0	59974	25791	93	
1853	0	59983	25793	93	
1854	0	59997	25805	93	
1855	0	60000	25802	93	
1856	0	60017	25809	93	
1857	0	60015	25816	93	
1858	0	60026	25822	93	
1859	0	60029	25826	93	
1860	0	60039	25833	93	
1861	0	60048	25837	93	
1862	0	60058	25843	93	
1863	0	60064	25843	93	
1864	0	60065	25849	93	
1865	0	60073	25852	93	
1866	0	60073	25855	93	
1867	0	60084	25861	93	
1868	0	60083	25860	93	
1869	0	60098	25863	93	
1870	0	60093	25867	93	
1871	0	60099	25871	93	
1872	0	60120	25880	93	
1873	0	60124	25877	93	
1874	0	60131	25885	93	
1875	0	60135	25890	93	
1876	0	60140	25893	93	
1877	0	60145	25898	93	
1878	0	60158	25903	93	
1879	0	60164	25909	93	
1880	0	60175	25909	93	
1881	0	60182	25918	93	
1882	0	60182	25922	93	
1883	0	60197	25930	93	
1884	0	60207	25932	93	
1885	0	60217	25939	93	
1886	0	60215	25937	93	
1887	0	60220	25948	93	
1888	0	60230	25952	93	
1889	0	60247	25953	93	
1890	0	60250	25964	93	
1891	0	60266	25970	93	
1892	0	60267	25968	93	
1893	0	60274	25971	93	
1894	0	60259	25970	93	
1895	0	60251	25965	93	
1896	0	60224	25956	93	
1897	0	60197	25937	93	
1898	0	60158	25925	93	
1899	0	60118	25892	93	
1900	0	60080	25873	93	
1901	0	60041	25848	93	
1902	0	60001	25826	93	
1903	0	59975	25800	93	
1904	0	59948	25784	93	
1905	0	59936	25773	93	
1906	0	59919	25758	93	
1907	0	59916	25753	93	
1908	0	59910	25746	93	
1909	0	59901	25741	93	
1910	0	59907	25744	93	
1911	0	59899	25743	93	
1912	0	59898	25742	93	
1913	0	59903	25740	93	
1914	0	59916	25742	93	
1915	0	59911	25745	93	
1916	0	59909	25746	93	
1917	0	59909	25740	93	
1918	0	59920	25743	93	
1919	0	59922	25749	93	
1920	0	59925	25750	93	
1921	0	59924	25755	93	
1922	0	59927	25754	93	
1923	0	59923	25753	93	
1924	0	59923	25751	93	
1925	0	59918	25752	93	
1926	0	59913	25755	93	
1927	0	59916	25750	93	
1928	0	59908	25750	93	
1929	0	59914	25750	93	
1930	0	59912	25751	93	
1931	0	59914	25744	93	
1932	0	59902	25745	93	
1933	0	59907	25742	93	
1934	0	59911	25743	93	
1935	0	59912	25738	93	
1936	0	59902	25743	93	
1937	0	59909	25746	93	
1938	0	59918	25748	93	
1939	0	59922	25755	93	
1940	0	59929	25757	93	
1941	0	59931	25761	93	
1942	0	59940	25765	93	
1943	0	59948	25770	93	
1944	0	59961	25777	93	
1945	0	59965	25780	93	
1946	0	59973	25785	93	
1947	0	59976	25789	93	
1948	0	59988	25794	93	
1949	0	59999	25800	93	
1950	0	60004	25807	93	
1951	0	60007	25803	93	
1952	0	60018	25817	93	
1953	0	60033	25818	93	
1954	0	60028	25824	93	
1955	0	60043	25829	93	
1956	0	60053	25834	93	
1957	0	60059	25841	93	
1958	0	60069	25844	93	
1959	0	60069	25847	93	
1960	0	60079	25853	93	
1961	0	60093	25855	93	
1962	0	60088	25863	93	
1963	0	60100	25861	93	
1964	0	60108	25866	93	
1965	0	60111	25868	93	
1966	0	60110	25873	93	
1967	0	60116	25874	93	
1968	0	60134	25878	93	
1969	0	60131	25885	93	
1970	0	60139	25888	93	
1971	0	60147	25891	93	
1972	0	60145	25895	93	
1973	0	60160	25898	93	
1974	0	60169	25907	93	
1975	0	60175	25912	93	
1976	0	60171	25917	93	
1977	0	60187	25921	93	
1978	0	60190	25922	93	
1979	0	60196	25932	93	
1980	0	60212	25937	93	
1981	0	60218	25943	93	
1982	0	60221	25949	93	
1983	0	60235	25954	93	
1984	0	60241	25957	93	
1985	0	60249	25956	93	
1986	0	60247	25962	93	
1987	0	60242	25957	93	
1988	0	60224	25951	93	
1989	0	60192	25935	93	
1990	0	60166	25917	93	
1991	0	60122	25891	93	
1992	0	60078	25875	93	
1993	0	60043	25850	93	
1994	0	59994	25822	93	
1995	0	59971	25798	93	
1996	0	59937	25784	93	
1997	0	59914	25765	93	
1998	0	59892	25753	93	
1999	0	59882	25738	93	
2000	0	59871	25732	93	
2001	0	59860	25723	93	
2002	0	59859	25717	93	
2003	0	59854	25716	93	
2004	0	59866	25715	93	
2005	0	59856	25716	93	
2006	0	59857	25718	93	
2007	0	59861	25720	93	
2008	0	59859	25720	93	
2009	0	59862	25714	93	
2010	0	59856	25718	93	
2011	0	59863	25716	93	
2012	0	59868	25720	93	
2013	0	59865	25722	93	
2014	0	59863	25721	93	
2015	0	59881	25723	93	
2016	0	59872	25728	93	
2017	0	59876	25725	93	
2018	0	59877	25728	93	
2019	0	59872	25728	93	
2020	0	59864	25728	93	
2021	0	59864	25725	93	
2022	0	59873	25726	93	
2023	0	59860	25722	93	
2024	0	59869	25721	93	
2025	0	59866	25721	93	
2026	0	59872	25725	93	
2027	0	59873	25726	93	
2028	0	59870	25725	93	
2029	0	59867	25723	93	
2030	0	59876	25729	93	
2031	0	59877	25732	93	
2032	0	59877	25731	93	
2033	0	59897	25736	93	
2034	0	59887	25742	93	
2035	0	59907	25741	93	
2036	0	59909	25748	93	
2037	0	59920	25757	93	
2038	0	59926	25764	93	
2039	0	59940	25768	93	
2040	0	59948	25774	93	
2041	0	59948	25775	93	
2042	0	59965	25787	93	
2043	0	59968	25788	93	
2044	0	59979	25792	93	
2045	0	59981	25806	93	
2046	0	59994	25809	93	
2047	0	59996	25809	93	
2048	0	60005	25815	93	
2049	0	60011	25823	93	
2050	0	60025	25823	93	
2051	0	60025	25831	93	
2052	0	60033	25833	93	
2053	0	60038	25840	93	
2054	0	60053	25848	93	
2055	0	60059	25849	93	
2056	0	60052	25851	93	
2057	0	60066	25857	93	
2058	0	60072	25862	93	
2059	0	60076	25863	93	
2060	0	60085	25869	93	
2061	0	60089	25873	93	
2062	0	60093	25879	93	
2063	0	60105	25877	93	
2064	0	60115	25889	93	
2065	0	60120	25890	93	
2066	0	60126	25897	93	
2067	0	60130	25898	93	
2068	0	60140	25903	93	
2069	0	60150	25910	93	
2070	0	60148	25912	93	
2071	0	60166	25915	93	
2072	0	60165	25925	93	
2073	0	60175	25927	93	
2074	0	60186	25934	93	
2075	0	60190	25937	93	
2076	0	60196	25940	93	
2077	0	60209	25946	93	
2078	0	60219	25946	93	
2079	0	60222	25956	93	
2080	0	60226	25961	93	
2081	0	60231	25961	93	
2082	0	60248	25968	93	
2083	0	60253	25972	93	
2084	0	60256	25971	93	
2085	0	60261	25984	93	
2086	0	60273	25985	93	
2087	0	60261	25980	93	
2088	0	60251	25979	93	
2089	0	60224	25965	93	
2090	0	60191	25947	93	
2091	0	60143	25925	93	
2092	0	60099	25904	93	
2093	0	60069	25869	93	
2094	0	60013	25844	93	
2095	0	59976	25814	93	
2096	0	59941	25793	93	
2097	0	59912	25772	93	
2098	0	59887	25759	93	
2099	0	59870	25740	93	
2100	0	59858	25736	93	
2101	0	59859	25730	93	
2102	0	59847	25720	93	
2103	0	59842	25719	93	
2104	0	59849	25718	93	
2105	0	59846	25714	93	
2106	0	59849	25715	93	
2107	0	59855	25718	93	
2108	0	59844	25715	93	
2109	0	59849	25717	93	
2110	0	59850	25716	93	
2111	0	59842	25714	93	
2112	0	59850	25720	93	
2113	0	59847	25723	93	
2114	0	59857	25725	93	
2115	0	59852	25722	93	
2116	0	59859	25730	93	
2117	0	59850	25727	93	
2118	0	59849	25727	93	
2119	0	59858	25725	93	
2120	0	59855	25730	93	
2121	0	59846	25730	93	
2122	0	59843	25728	93	
2123	0	59849	25727	93	
2124	0	59844	25724	93	
2125	0	59843	25720	93	
2126	0	59840	25722	93	
2127	0	59835	25724	93	
2128	0	59836	25723	93	
2129	0	59848	25725	93	
2130	0	59852	25722	93	
2131	0	59847	25724	93	
2132	0	59858	25728	93	
2133	0	59851	25731	93	
2134	0	59870	25736	93	
2135	0	59868	25736	93	
2136	0	59878	25741	93	
2137	0	59889	25745	93	
2138	0	59885	25749	93	
2139	0	59896	25758	93	
2140	0	59908	25764	93	
2141	0	59923	25767	93	
2142	0	59933	25776	93	
2143	0	59940	25774	93	
2144	0	59936	25782	93	
2145	0	59946	25786	93	
2146	0	59960	25794	93	
2147	0	59970	25796	93	
2148	0	59981	25807	93	
2149	0	59983	25810	93	
2150	0	59981	25816	93	
2151	0	59995	25819	93	
2152	0	59995	25821	93	
2153	0	60014	25828	93	
2154	0	60008	25830	93	
2155	0	60018	25836	93	
2156	0	60026	25836	93	
2157	0	60025	25843	93	
2158	0	60039	25846	93	
2159	0	60044	25850	93	
2160	0	60055	25855	93	
2161	0	60061	25854	93	
2162	0	60058	25859	93	
2163	0	60059	25861	93	
2164	0	60073	25873	93	
2165	0	60078	25875	93	
2166	0	60085	25875	93	
2167	0	60091	25881	93	
2168	0	60098	25887	93	
2169	0	60103	25896	93	
2170	0	60105	25892	93	
2171	0	60109	25902	93	
2172	0	60122	25908	93	
2173	0	60133	25910	93	
2174	0	60136	25913	93	
2175	0	60147	25915	93	
2176	0	60145	25923	93	
2177	0	60158	25927	93	
2178	0	60159	25930	93	
2179	0	60166	25933	93	
2180	0	60185	25940	93	
2181	0	60191	25942	93	
2182	0	60194	25949	93	
2183	0	60200	25949	93	
2184	0	60200	25961	93	
2185	0	60202	25955	93	
2186	0	60202	25957	93	
2187	0	60182	25946	93	
2188	0	60151	25925	93	
2189	0	60106	25913	93	
2190	0	60069	25887	93	
2191	0	60032	25861	93	
2192	0	59978	25835	93	
2193	0	59951	25809	93	
2194	0	59912	25788	93	
2195	0	59881	25763	93	
2196	0	59843	25745	93	
2197	0	59836	25731	93	
2198	0	59814	25723	93	
2199	0	59817	25710	93	
2200	0	59808	25715	93	
2201	0	59808	25704	93	
2202	0	59804	25707	93	
2203	0	59812	25705	93	
2204	0	59810	25704	93	
2205	0	59813	25710	93	
2206	0	59820	25712	93	
2207	0	59820	25714	93	
2208	0	59827	25715	93	
2209	0	59832	25718	93	
2210	0	59831	25723	93	
2211	0	59832	25724	93	
2212	0	59836	25725	93	
2213	0	59844	25725	93	
2214	0	59840	25728	93	
2215	0	59838	25725	93	
2216	0	59842	25725	93	
2217	0	59845	25724	93	
2218	0	59830	25724	93	
2219	0	59832	25721	93	
2220	0	59829	25722	93	
2221	0	59817	25715	93	
2222	0	59823	25716	93	
2223	0	59822	25712	93	
2224	0	59809	25708	93	
2225	0	59815	25715	93	
2226	0	59816	25715	93	
2227	0	59810	25717	93	
2228	0	59821	25715	93	
2229	0	59826	25721	93	
2230	0	59835	25726	93	
2231	0	59825	25724	93	
2232	0	59836	25727	93	
2233	0	59845	25731	93	
2234	0	59858	25738	93	
2235	0	59862	25744	93	
2236	0	59870	25750	93	
2237	0	59879	25750	93	
2238	0	59887	25758	93	
2239	0	59899	25764	93	
2240	0	59907	25774	93	
2241	0	59915	25774	93	
2242	0	59925	25786	93	
2243	0	59930	25784	93	
2244	0	59937	25789	93	
2245	0	59951	25789	93	
2246	0	59954	25805	93	
2247	0	59965	25804	93	
2248	0	59970	25810	93	
2249	0	59972	25819	93	
2250	0	59980	25820	93	
2251	0	59994	25820	93	
2252	0	59995	25826	93	
2253	0	60000	25827	93	
2254	0	60005	25834	93	
2255	0	60014	25839	93	
2256	0	60021	25848	93	
2257	0	60019	25847	93	
2258	0	60030	25852	93	
2259	0	60042	25857	93	
2260	0	60044	25861	93	
2261	0	60054	25863	93	
2262	0	60058	25867	93	
2263	0	60061	25872	93	
2264	0	60072	25876	93	
2265	0	60068	25880	93	
2266	0	60083	25883	93	
2267	0	60093	25886	93	
2268	0	60085	25897	93	
2269	0	60102	25897	93	
2270	0	60100	25899	93	
2271	0	60117	25900	93	
2272	0	60120	25910	93	
2273	0	60123	25912	93	
2274	0	60135	25918	93	
2275	0	60142	25924	93	
2276	0	60150	25923	93	
2277	0	60155	25930	93	
2278	0	60162	25934	93	
2279	0	60151	25933	93	
2280	0	60137	25927	93	
2281	0	60109	25912	93	
2282	0	60075	25893	93	
2283	0	60046	25872	93	
2284	0	59993	25845	93	
2285	0	59954	25816	93	
2286	0	59907	25791	93	
2287	0	59864	25757	93	
2288	0	59820	25736	93	
2289	0	59782	25710	93	
2290	0	59766	25698	93	
2291	0	59746	25679	93	
2292	0	59725	25672	93	
2293	0	59726	25664	93	
2294	0	59718	25659	93	
2295	0	59707	25652	93	
2296	0	59718	25653	93	
2297	0	59721	25654	93	
2298	0	59715	25654	93	
2299	0	59714	25652	93	
2300	0	59722	25651	93	
2301	0	59718	25650	93	
2302	0	59715	25650	93	
2303	0	59717	25652	93	
2304	0	59717	25649	93	
2305	0	59718	25649	93	
2306	0	59715	25653	93	
2307	0	59723	25650	93	
2308	0	59726	25655	93	
2309	0	59718	25654	93	
2310	0	59720	25649	93	
2311	0	59712	25653	93	
2312	0	59715	25655	93	
2313	0	59720	25651	93	
2314	0	59712	25653	93	
2315	0	59719	25644	93	
2316	0	59710	25650	93	
2317	0	59709	25649	93	
2318	0	59707	25651	93	
2319	0	59708	25641	93	
2320	0	59697	25648	93	
2321	0	59701	25646	93	
2322	0	59711	25651	93	
2323	0	59712	25651	93	
2324	0	59715	25649	93	
2325	0	59724	25654	93	
2326	0	59739	25661	93	
2327	0	59743	25664	93	
2328	0	59749	25668	93	
2329	0	59749	25677	93	
2330	0	59767	25683	93	
2331	0	59773	25682	93	
2332	0	59778	25692	93	
2333	0	59790	25693	93	
2334	0	59792	25701	93	
2335	0	59805	25704	93	
2336	0	59818	25710	93	
2337	0	59824	25716	93	
2338	0	59839	25727	93	
2339	0	59839	25731	93	
2340	0	59858	25738	93	
2341	0	59867	25744	93	
2342	0	59872	25742	93	
2343	0	59872	25752	93	
2344	0	59882	25762	93	
2345	0	59891	25758	93	
2346	0	59889	25765	93	
2347	0	59896	25766	93	
2348	0	59901	25770	93	
2349	0	59920	25779	93	
2350	0	59918	25783	93	
2351	0	59915	25788	93	
2352	0	59927	25794	93	
2353	0	59937	25794	93	
2354	0	59938	25795	93	
2355	0	59955	25800	93	
2356	0	59950	25807	93	
2357	0	59970	25811	93	
2358	0	59977	25815	93	
2359	0	59977	25818	93	
2360	0	59991	25825	93	
2361	0	59998	25826	93	
2362	0	59999	25834	93	
2363	0	60008	25840	93	
2364	0	60018	25840	93	
2365	0	60022	25846	93	
2366	0	60029	25857	93	
2367	0	60038	25855	93	
2368	0	60043	25859	93	
2369	0	60060	25865	93	
2370	0	60069	25868	93	
2371	0	60070	25879	93	
2372	0	60082	25884	93	
2373	0	60097	25889	93	
2374	0	60091	25893	93	
2375	0	60097	25893	93	
2376	0	60094	25891	93	
2377	0	60066	25877	93	
2378	0	60035	25866	93	
2379	0	59996	25841	93	
2380	0	59951	25817	93	
2381	0	59905	25788	93	
2382	0	59858	25758	93	
2383	0	59805	25728	93	
2384	0	59765	25703	93	
2385	0	59735	25676	93	
2386	0	59696	25657	93	
2387	0	59686	25644	93	
2388	0	59665	25624	93	
2389	0	59661	25619	93	
2390	0	59654	25617	93	
2391	0	59646	25616	93	
2392	0	59653	25611	93	
2393	0	59645	25614	93	
2394	0	59652	25610	93	
2395	0	59647	25611	93	
2396	0	59648	25608	93	
2397	0	59644	25611	93	
2398	0	59641	25605	93	
2399	0	59649	25604	93	
2400	0	59643	25608	93	
2401	0	59647	25611	93	
2402	0	59647	25604	93	
2403	0	59648	25611	93	
2404	0	59651	25610	93	
2405	0	59652	25616	93	
2406	0	59648	25615	93	
2407	0	59658	25612	93	
2408	0	59658	25610	93	
2409	0	59655	25610	93	
2410	0	59655	25611	93	
2411	0	59648	25613	93	
2412	0	59657	25610	93	
2413	0	59647	25609	93	
2414	0	59647	25613	93	
2415	0	59648	25608	93	
2416	0	59651	25606	93	
2417	0	59657	25616	93	
2418	0	59653	25613	93	
2419	0	59648	25617	93	
2420	0	59667	25615	93	
2421	0	59661	25619	93	
2422	0	59673	25623	93	
2423	0	59675	25627	93	
2424	0	59695	25633	93	
2425	0	59698	25631	93	
2426	0	59708	25640	93	
2427	0	59705	25648	93	
2428	0	59722	25647	93	
2429	0	59734	25657	93	
2430	0	59738	25662	93	
2431	0	59745	25667	93	
2432	0	59761	25674	93	
2433	0	59773	25678	93	
2434	0	59782	25690	93	
2435	0	59790	25692	93	
2436	0	59789	25692	93	
2437	0	59801	25706	93	
2438	0	59814	25711	93	
2439	0	59815	25716	93	
2440	0	59823	25718	93	
2441	0	59827	25725	93	
2442	0	59844	25730	93	
2443	0	59842	25731	93	
2444	0	59850	25733	93	
2445	0	59850	25739	93	
2446	0	59864	25743	93	
2447	0	59871	25748	93	
2448	0	59878	25744	93	
2449	0	59879	25750	93	
2450	0	59892	25756	93	
2451	0	59884	25759	93	
2452	0	59896	25762	93	
2453	0	59902	25763	93	
2454	0	59915	25769	93	
2455	0	59911	25771	93	
2456	0	59925	25778	93	
2457	0	59924	25779	93	
2458	0	59940	25782	93	
2459	0	59940	25791	93	
2460	0	59952	25798	93	
2461	0	59966	25804	93	
2462	0	59957	25802	93	
2463	0	59964	25812	93	
2464	0	59977	25810	93	
2465	0	59985	25818	93	
2466	0	59993	25819	93	
2467	0	59997	25831	93	
2468	0	60012	25837	93	
2469	0	60023	25836	93	
2470	0	60033	25842	93	
2471	0	60032	25846	93	
2472	0	60030	25852	93	
2473	0	60024	25844	93	
2474	0	60015	25837	93	
2475	0	59978	25825	93	
2476	0	59945	25807	93	
2477	0	59904	25782	93	
2478	0	59866	25757	93	
2479	0	59819	25726	93	
2480	0	59775	25702	93	
2481	0	59737	25681	93	
2482	0	59691	25647	93	
2483	0	59664	25633	93	
2484	0	59645	25615	93	
2485	0	59635	25609	93	
2486	0	59613	25594	93	
2487	0	59610	25593	93	
2488	0	59611	25590	93	
2489	0	59619	25587	93	
2490	0	59624	25590	93	
2491	0	59629	25592	93	
2492	0	59621	25591	93	
2493	0	59631	25593	93	
2494	0	59623	25593	93	
2495	0	59633	25597	93	
2496	0	59641	25595	93	
2497	0	59640	25601	93	
2498	0	59645	25600	93	
2499	0	59649	25606	93	
2500	0	59648	25607	93	
2501	0	59652	25607	93	
2502	0	59646	25608	93	
2503	0	59645	25608	93	
2504	0	59647	25612	93	
2505	0	59651	25615	93	
2506	0	59647	25608	93	
2507	0	59637	25610	93	
2508	0	59639	25603	93	
2509	0	59631	25603	93	
2510	0	59635	25601	93	
2511	0	59625	25599	93	
2512	0	59624	25603	93	
2513	0	59628	25599	93	
2514	0	59637	25600	93	
2515	0	59641	25603	93	
2516	0	59640	25600	93	
2517	0	59643	25609	93	
2518	0	59655	25615	93	
2519	0	59656	25617	93	
2520	0	59670	25622	93	
2521	0	59671	25626	93	
2522	0	59681	25632	93	
2523	0	59693	25637	93	
2524	0	59699	25641	93	
2525	0	59711	25650	93	
2526	0	59727	25655	93	
2527	0	59726	25664	93	
2528	0	59740	25675	93	
2529	0	59750	25678	93	
2530	0	59759	25683	93	
2531	0	59762	25689	93	
2532	0	59777	25696	93	
2533	0	59786	25703	93	
2534	0	59786	25707	93	
2535	0	59797	25709	93	
2536	0	59805	25715	93	
2537	0	59807	25726	93	
2538	0	59819	25727	93	
2539	0	59817	25730	93	
2540	0	59833	25738	93	
2541	0	59838	25737	93	
2542	0	59840	25744	93	
2543	0	59840	25750	93	
2544	0	59854	25756	93	
2545	0	59854	25752	93	
2546	0	59872	25754	93	
2547	0	59871	25762	93	
2548	0	59879	25764	93	
2549	0	59879	25768	93	
2550	0	59888	25775	93	
2551	0	59891	25781	93	
2552	0	59898	25785	93	
2553	0	59914	25789	93	
2554	0	59909	25791	93	
2555	0	59917	25794	93	
2556	0	59929	25801	93	
2557	0	59938	25806	93	
2558	0	59941	25812	93	
2559	0	59943	25817	93	
2560	0	59960	25818	93	
2561	0	59971	25826	93	
2562	0	59977	25825	93	
2563	0	59992	25836	93	
2564	0	60001	25833	93	
2565	0	59992	25837	93	
2566	0	59986	25835	93	
2567	0	59961	25827	93	
2568	0	59929	25812	93	
2569	0	59896	25793	93	
2570	0	59854	25766	93	
2571	0	59792	25739	93	
2572	0	59758	25706	93	
2573	0	59703	25682	93	
2574	0	59673	25655	93	
2575	0	59632	25633	93	
2576	0	59606	25614	93	
2577	0	59586	25597	93	
2578	0	59575	25591	93	
2579	0	59572	25584	93	
2580	0	59569	25585	93	
2581	0	59565	25577	93	
2582	0	59570	25571	93	
2583	0	59566	25576	93	
2584	0	59562	25573	93	
2585	0	59564	25575	93	
2586	0	59565	25578	93	
2587	0	59555	25576	93	
2588	0	59559	25573	93	
2589	0	59556	25573	93	
2590	0	59565	25573	93	
2591	0	59557	25577	93	
2592	0	59569	25576	93	
2593	0	59565	25578	93	
2594	0	59573	25582	93	
2595	0	59570	25581	93	
2596	0	59576	25585	93	
2597	0	59574	25583	93	
2598	0	59575	25585	93	
2599	0	59581	25586	93	
2600	0	59581	25584	93	
2601	0	59575	25587	93	
2602	0	59582	25585	93	
2603	0	59577	25589	93	
2604	0	59583	25587	93	
2605	0	59574	25586	93	
2606	0	59579	25586	93	
2607	0	59586	25588	93	
2608	0	59591	25588	93	
2609	0	59594	25596	93	
2610	0	59598	25597	93	
2611	0	59607	25594	93	
2612	0	59609	25604	93	
2613	0	59609	25605	93	
2614	0	59626	25617	93	
2615	0	59626	25621	93	
2616	0	59639	25629	93	
2617	0	59643	25635	93	
2618	0	59654	25643	93	
2619	0	59672	25645	93	
2620	0	59669	25652	93	
2621	0	59683	25657	93	
2622	0	59695	25663	93	
2623	0	59697	25670	93	
2624	0	59709	25679	93	
2625	0	59724	25681	93	
2626	0	59733	25693	93	
2627	0	59736	25696	93	
2628	0	59743	25702	93	
2629	0	59750	25708	93	
2630	0	59754	25713	93	
2631	0	59772	25715	93	
2632	0	59783	25724	93	
2633	0	59785	25727	93	
2634	0	59782	25731	93	
2635	0	59788	25736	93	
2636	0	59806	25743	93	
2637	0	59816	25745	93	
2638	0	59816	25755	93	
2639	0	59814	25758	93	
2640	0	59832	25763	93	
2641	0	59830	25762	93	
2642	0	59843	25770	93	
2643	0	59850	25775	93	
2644	0	59859	25778	93	
2645	0	59862	25785	93	
2646	0	59874	25790	93	
2647	0	59879	25798	93	
2648	0	59890	25800	93	
2649	0	59896	25808	93	
2650	0	59904	25810	93	
2651	0	59918	25814	93	
2652	0	59917	25823	93	
2653	0	59931	25825	93	
2654	0	59939	25830	93	
2655	0	59950	25836	93	
2656	0	59953	25847	93	
2657	0	59964	25850	93	
2658	0	59975	25857	93	
2659	0	59985	25857	93	
2660	0	59987	25865	93	
2661	0	60002	25871	93	
2662	0	60018	25881	93	
2663	0	60019	25885	93	
2664	0	60006	25885	93	
2665	0	59989	25874	93	
2666	0	59972	25867	93	
2667	0	59937	25849	93	
2668	0	59884	25823	93	
2669	0	59837	25792	93	
2670	0	59797	25765	93	
2671	0	59755	25737	93	
2672	0	59708	25719	93	
2673	0	59669	25689	93	
2674	0	59649	25677	93	
2675	0	59624	25654	93	
2676	0	59607	25648	93	
2677	0	59600	25638	93	
2678	0	59597	25630	93	
2679	0	59588	25625	93	
2680	0	59591	25624	93	
2681	0	59593	25624	93	
2682	0	59584	25624	93	
2683	0	59596	25622	93	
2684	0	59596	25621	93	
2685	0	59593	25622	93	
2686	0	59589	25615	93	
2687	0	59587	25620	93	
2688	0	59585	25622	93	
2689	0	59594	25629	93	
2690	0	59597	25628	93	
2691	0	59595	25628	93	
2692	0	59604	25626	93	
2693	0	59605	25628	93	
2694	0	59611	25629	93	
2695	0	59610	25628	93	
2696	0	59602	25630	93	
2697	0	59604	25631	93	
2698	0	59602	25632	93	
2699	0	59618	25633	93	
2700	0	59610	25635	93	
2701	0	59612	25632	93	
2702	0	59604	25632	93	
2703	0	59605	25634	93	
2704	0	59601	25634	93	
2705	0	59605	25633	93	
2706	0	59610	25638	93	
2707	0	59620	25638	93	
2708	0	59622	25646	93	
2709	0	59626	25645	93	
2710	0	59626	25653	93	
2711	0	59632	25655	93	
2712	0	59648	25658	93	
2713	0	59653	25665	93	
2714	0	59657	25672	93	
2715	0	59670	25676	93	
2716	0	59681	25686	93	
2717	0	59686	25687	93	
2718	0	59696	25694	93	
2719	0	59704	25701	93	
2720	0	59717	25702	93	
2721	0	59722	25709	93	
2722	0	59731	25720	93	
2723	0	59740	25725	93	
2724	0	59743	25731	93	
2725	0	59750	25736	93	
2726	0	59766	25741	93	
2727	0	59767	25744	93	
2728	0	59774	25751	93	
2729	0	59782	25762	93	
2730	0	59786	25763	93	
2731	0	59791	25763	93	
2732	0	59788	25768	93	
2733	0	59798	25771	93	
2734	0	59798	25773	93	
2735	0	59809	25778	93	
2736	0	59820	25787	93	
2737	0	59815	25790	93	
2738	0	59823	25790	93	
2739	0	59821	25790	93	
2740	0	59824	25797	93	
2741	0	59838	25801	93	
2742	0	59846	25802	93	
2743	0	59848	25805	93	
2744	0	59856	25812	93	
2745	0	59857	25817	93	
2746	0	59864	25823	93	
2747	0	59879	25828	93	
2748	0	59877	25832	93	
2749	0	59883	25833	93	
2750	0	59900	25838	93	
2751	0	59908	25848	93	
2752	0	59909	25850	93	
2753	0	59915	25853	93	
2754	0	59921	25858	93	
2755	0	59938	25864	93	
2756	0	59940	25871	93	
2757	0	59947	25881	93	
2758	0	59963	25879	93	
2759	0	59969	25888	93	
2760	0	59975	25892	93	
2761	0	59976	25892	93	
2762	0	59961	25890	93	
2763	0	59948	25878	93	
2764	0	59909	25869	93	
2765	0	59873	25848	93	
2766	0	59836	25826	93	
2767	0	59798	25798	93	
2768	0	59752	25767	93	
2769	0	59712	25747	93	
2770	0	59668	25722	93	
2771	0	59645	25702	93	
2772	0	59620	25683	93	
2773	0	59612	25678	93	
2774	0	59601	25667	93	
2775	0	59595	25655	93	
2776	0	59589	25658	93	
2777	0	59593	25653	93	
2778	0	59586	25649	93	
2779	0	59591	25651	93	
2780	0	59586	25652	93	
2781	0	59597	25653	93	
2782	0	59596	25653	93	
2783	0	59603	25653	93	
2784	0	59591	25658	93	
2785	0	59606	25658	93	
2786	0	59606	25652	93	
2787	0	59602	25657	93	
2788	0	59609	25663	93	
2789	0	59614	25670	93	
2790	0	59609	25667	93	
2791	0	59621	25668	93	
2792	0	59622	25670	93	
2793	0	59620	25670	93	
2794	0	59613	25668	93	
2795	0	59616	25667	93	
2796	0	59616	25667	93	
2797	0	59617	25666	93	
2798	0	59615	25669	93	
2799	0	59612	25670	93	
2800	0	59614	25669	93	
2801	0	59616	25669	93	
2802	0	59609	25666	93	
2803	0	59610	25670	93	
2804	0	59617	25670	93	
2805	0	59621	25676	93	
2806	0	59623	25679	93	
2807	0	59626	25685	93	
2808	0	59637	25688	93	
2809	0	59646	25694	93	
2810	0	59654	25695	93	
2811	0	59659	25704	93	
2812	0	59664	25712	93	
2813	0	59672	25714	93	
2814	0	59678	25719	93	
2815	0	59690	25731	93	
2816	0	59696	25733	93	
2817	0	59708	25738	93	
2818	0	59715	25747	93	
2819	0	59724	25749	93	
2820	0	59735	25751	93	
2821	0	59741	25763	93	
2822	0	59746	25768	93	
2823	0	59751	25771	93	
2824	0	59766	25777	93	
2825	0	59768	25785	93	
2826	0	59771	25785	93	
2827	0	59781	25786	93	
2828	0	59787	25795	93	
2829	0	59790	25799	93	
2830	0	59790	25802	93	
2831	0	59800	25809	93	
2832	0	59801	25815	93	
2833	0	59805	25812	93	
2834	0	59810	25819	93	
2835	0	59821	25825	93	
2836	0	59830	25828	93	
2837	0	59840	25831	93	
2838	0	59839	25835	93	
2839	0	59852	25845	93	
2840	0	59850	25843	93	
2841	0	59861	25852	93	
2842	0	59872	25857	93	
2843	0	59873	25858	93	
2844	0	59881	25860	93	
2845	0	59892	25867	93	
2846	0	59889	25867	93	
2847	0	59894	25873	93	
2848	0	59904	25879	93	
2849	0	59914	25885	93	
2850	0	59920	25887	93	
2851	0	59939	25891	93	
2852	0	59940	25899	93	
2853	0	59949	25903	93	
2854	0	59954	25905	93	
2855	0	59962	25914	93	
2856	0	59971	25921	93	
2857	0	59985	25926	93	
2858	0	59979	25926	93	
2859	0	59978	25929	93	
2860	0	59959	25917	93	
2861	0	59938	25915	93	
2862	0	59901	25895	93	
2863	0	59863	25865	93	
2864	0	59821	25837	93	
2865	0	59777	25813	93	
2866	0	59728	25786	93	
2867	0	59689	25752	93	
2868	0	59648	25731	93	
2869	0	59621	25713	93	
2870	0	59597	25693	93	
2871	0	59582	25678	93	
2872	0	59567	25670	93	
2873	0	59556	25665	93	
2874	0	59553	25660	93	
2875	0	59554	25659	93	
2876	0	59553	25657	93	
2877	0	59557	25657	93	
2878	0	59552	25656	93	
2879	0	59551	25655	93	
2880	0	59542	25653	93	
2881	0	59550	25655	93	
2882	0	59542	25649	93	
2883	0	59545	25648	93	
2884	0	59547	25654	93	
2885	0	59539	25646	93	
2886	0	59553	25653	93	
2887	0	59545	25654	93	
2888	0	59556	25657	93	
2889	0	59551	25652	93	
2890	0	59557	25655	93	
2891	0	59549	25654	93	
2892	0	59560	25658	93	
2893	0	59558	25661	93	
2894	0	59557	25656	93	
2895	0	59550	25655	93	
2896	0	59561	25657	93	
2897	0	59549	25662	93	
2898	0	59552	25659	93	
2899	0	59560	25660	93	
2900	0	59555	25661	93	
2901	0	59565	25666	93	
2902	0	59561	25657	93	
2903	0	59565	25668	93	
2904	0	59569	25671	93	
2905	0	59580	25672	93	
2906	0	59578	25682	93	
2907	0	59590	25685	93	
2908	0	59591	25689	93	
2909	0	59604	25689	93	
2910	0	59607	25696	93	
2911	0	59616	25705	93	
2912	0	59636	25707	93	
2913	0	59643	25718	93	
2914	0	59647	25721	93	
2915	0	59657	25733	93	
2916	0	59660	25734	93	
2917	0	59673	25744	93	
2918	0	59687	25748	93	
2919	0	59693	25750	93	
2920	0	59698	25758	93	
2921	0	59705	25761	93	
2922	0	59710	25764	93	
2923	0	59721	25772	93	
2924	0	59718	25777	93	
2925	0	59722	25781	93	
2926	0	59736	25780	93	
2927	0	59740	25787	93	
2928	0	59741	25791	93	
2929	0	59756	25795	93	
2930	0	59754	25802	93	
2931	0	59760	25809	93	
2932	0	59770	25812	93	
2933	0	59779	25813	93	
2934	0	59779	25817	93	
2935	0	59782	25822	93	
2936	0	59790	25828	93	
2937	0	59804	25833	93	
2938	0	59810	25835	93	
2939	0	59812	25842	93	
2940	0	59824	25844	93	
2941	0	59826	25850	93	
2942	0	59840	25857	93	
2943	0	59836	25858	93	
2944	0	59850	25859	93	
2945	0	59853	25866	93	
2946	0	59864	25872	93	
2947	0	59869	25879	93	
2948	0	59880	25884	93	
2949	0	59886	25887	93	
2950	0	59893	25891	93	
2951	0	59900	25900	93	
2952	0	59915	25908	93	
2953	0	59917	25913	93	
2954	0	59925	25917	93	
2955	0	59927	25923	93	
2956	0	59935	25926	93	
2957	0	59949	25924	93	
2958	0	59960	25931	93	
2959	0	59963	25934	93	
2960	0	59975	25940	93	
2961	0	59974	25938	93	
2962	0	59967	25934	93	
2963	0	59937	25934	93	
2964	0	59914	25913	93	
2965	0	59874	25893	93	
2966	0	59839	25868	93	
2967	0	59787	25850	93	
2968	0	59754	25815	93	
2969	0	59702	25792	93	
2970	0	59668	25762	93	
2971	0	59639	25742	93	
2972	0	59610	25723	93	
2973	0	59598	25712	93	
2974	0	59578	25702	93	
2975	0	59561	25694	93	
2976	0	59563	25691	93	
2977	0	59564	25687	93	
2978	0	59565	25686	93	
2979	0	59570	25685	93	
2980	0	59563	25685	93	
2981	0	59571	25690	93	
2982	0	59574	25684	93	
2983	0	59562	25685	93	
2984	0	59572	25683	93	
2985	0	59565	25687	96	
2986	0	59573	25685	96	
2987	0	59579	25690	96	
2988	0	59571	25686	96	
2989	0	59577	25690	96	
2990	0	59580	25688	96	
2991	0	59579	25691	96	
2992	0	59581	25693	96	
2993	0	59582	25690	96	
2994	0	59572	25694	96	
2995	0	59581	25691	96	
2996	0	59575	25687	96	
2997	0	59567	25689	96	
2998	0	59561	25688	96	
2999	0	59563	25685	96	
3000	0	59560	25683	96	
3001	0	59562	25684	96	
3002	0	59560	25683	96	
3003	0	59568	25690	96	
3004	0	59568	25689	96	
3005	0	59571	25692	96	
3006	0	59567	25693	96	
3007	0	59581	25694	96	
3008	0	59576	25700	96	
3009	0	59589	25705	96	
3010	0	59596	25708	96	
3011	0	59608	25717	96	
3012	0	59612	25722	96	
3013	0	59621	25725	96	
3014	0	59627	25730	96	
3015	0	59631	25733	96	
3016	0	59640	25740	96	
3017	0	59648	25749	96	
3018	0	59663	25755	96	
3019	0	59666	25759	96	
3020	0	59672	25766	96	
3021	0	59690	25769	96	
3022	0	59686	25782	96	
3023	0	59697	25776	96	
3024	0	59698	25784	96	
3025	0	59713	25793	96	
3026	0	59713	25794	96	
3027	0	59717	25798	96	
3028	0	59729	25802	96	
3029	0	59727	25809	96	
3030	0	59729	25813	96	
3031	0	59737	25817	96	
3032	0	59739	25812	96	
3033	0	59753	25821	96	
3034	0	59751	25824	96	
3035	0	59757	25828	96	
3036	0	59769	25831	96	
3037	0	59768	25834	96	
3038	0	59781	25839	96	
3039	0	59782	25845	96	
3040	0	59791	25847	96	
3041	0	59795	25854	96	
3042	0	59807	25859	96	
3043	0	59811	25866	96	
3044	0	59815	25869	96	
3045	0	59831	25870	96	
3046	0	59840	25877	96	
3047	0	59845	25879	96	
3048	0	59851	25885	96	
3049	0	59857	25888	96	
3050	0	59868	25895	96	
3051	0	59872	25900	96	
3052	0	59875	25907	96	
3053	0	59889	25913	96	
3054	0	59892	25922	96	
3055	0	59907	25919	96	
3056	0	59908	25927	96	
3057	0	59917	25935	96	
3058	0	59929	25939	96	
3059	0	59933	25940	96	
3060	0	59930	25941	96	
3061	0	59917	25934	96	
3062	0	59891	25922	96	
3063	0	59853	25908	96	
3064	0	59822	25880	96	
3065	0	59776	25861	96	
3066	0	59739	25830	96	
3067	0	59691	25807	96	
3068	0	59652	25778	96	
3069	0	59620	25754	96	
3070	0	59586	25734	96	
3071	0	59560	25721	96	
3072	0	59552	25708	96	
3073	0	59533	25697	96	
3074	0	59530	25689	96	
3075	0	59525	25687	96	
3076	0	59526	25683	96	
3077	0	59527	25682	96	
3078	0	59526	25678	96	
3079	0	59526	25674	96	
3080	0	59521	25676	96	
3081	0	59523	25679	96	
3082	0	59525	25671	96	
3083	0	59523	25671	96	
3084	0	59525	25670	96	
3085	0	59524	25673	96	
3086	0	59520	25669	96	
3087	0	59529	25675	96	
3088	0	59530	25671	96	
3089	0	59540	25676	96	
3090	0	59529	25680	96	
3091	0	59541	25680	96	
3092	0	59535	25677	96	
3093	0	59532	25680	96	
3094	0	59535	25678	96	
3095	0	59535	25681	96	
3096	0	59533	25672	96	
3097	0	59529	25676	96	
3098	0	59527	25675	96	
3099	0	59529	25675	96	
3100	0	59524	25677	96	
3101	0	59522	25678	96	
3102	0	59524	25679	96	
3103	0	59530	25685	96	
3104	0	59532	25683	96	
3105	0	59539	25686	96	
3106	0	59534	25686	96	
3107	0	59549	25691	96	
3108	0	59551	25693	96	
3109	0	59566	25701	96	
3110	0	59571	25706	96	
3111	0	59580	25710	96	
3112	0	59579	25717	96	
3113	0	59596	25720	96	
3114	0	59607	25733	96	
3115	0	59609	25736	96	
3116	0	59622	25737	96	
3117	0	59626	25747	96	
3118	0	59638	25750	96	
3119	0	59641	25755	96	
3120	0	59654	25763	96	
3121	0	59667	25762	96	
3122	0	59671	25770	96	
3123	0	59675	25780	96	
3124	0	59678	25784	96	
3125	0	59692	25790	96	
3126	0	59697	25792	96	
3127	0	59696	25798	96	
3128	0	59708	25803	96	
3129	0	59717	25806	96	
3130	0	59722	25810	96	
3131	0	59730	25814	96	
3132	0	59724	25815	96	
3133	0	59737	25822	96	
3134	0	59743	25823	96	
3135	0	59747	25830	96	
3136	0	59751	25836	96	
3137	0	59766	25842	96	
3138	0	59771	25844	96	
3139	0	59777	25851	96	
3140	0	59782	25851	96	
3141	0	59792	25852	96	
3142	0	59798	25861	96	
3143	0	59811	25868	96	
3144	0	59814	25871	96	
3145	0	59820	25877	96	
3146	0	59828	25885	96	
3147	0	59832	25886	96	
3148	0	59841	25891	96	
3149	0	59861	25895	96	
3150	0	59865	25906	96	
3151	0	59873	25908	96	
3152	0	59874	25915	96	
3153	0	59889	25921	96	
3154	0	59895	25921	96	
3155	0	59908	25929	96	
3156	0	59913	25935	96	
3157	0	59920	25945	96	
3158	0	59924	25949	96	
3159	0	59939	25952	96	
3160	0	59943	25954	96	
3161	0	59945	25961	96	
3162	0	59957	25967	96	
3163	0	59959	25968	96	
3164	0	59961	25973	96	
3165	0	59966	25966	96	
3166	0	59945	25958	96	
3167	0	59915	25952	96	
3168	0	59879	25934	96	
3169	0	59839	25906	96	
3170	0	59795	25884	96	
3171	0	59760	25851	96	
3172	0	59716	25823	96	
3173	0	59675	25797	96	
3174	0	59632	25769	96	
3175	0	59613	25754	96	
3176	0	59582	25733	96	
3177	0	59571	25716	96	
3178	0	59563	25710	96	
3179	0	59558	25707	96	
3180	0	59549	25704	96	
3181	0	59557	25704	96	
3182	0	59554	25699	96	
3183	0	59555	25702	96	
3184	0	59555	25697	96	
3185	0	59551	25697	96	
3186	0	59552	25696	96	
3187	0	59552	25692	96	
3188	0	59542	25690	96	
3189	0	59544	25694	96	
3190	0	59542	25694	96	
3191	0	59559	25695	96	
3192	0	59554	25691	96	
3193	0	59558	25702	96	
3194	0	59553	25700	96	
3195	0	59557	25699	96	
3196	0	59557	25698	96	
3197	0	59567	25704	96	
3198	0	59556	25702	96	
3199	0	59563	25703	96	
3200	0	59557	25703	96	
3201	0	59562	25699	96	
3202	0	59555	25699	96	
3203	0	59554	25701	96	
3204	0	59549	25698	96	
3205	0	59562	25703	96	
3206	0	59561	25699	96	
3207	0	59560	25707	96	
3208	0	59568	25706	96	
3209	0	59568	25709	96	
3210	0	59564	25714	96	
3211	0	59575	25714	96	
3212	0	59578	25716	96	
3213	0	59584	25722	96	
3214	0	59602	25725	96	
3215	0	59607	25736	96	
3216	0	59616	25735	96	
3217	0	59617	25743	96	
3218	0	59628	25752	96	
3219	0	59642	25754	96	
3220	0	59646	25762	96	
3221	0	59655	25764	96	
3222	0	59665	25774	96	
3223	0	59666	25780	96	
3224	0	59682	25780	96	
3225	0	59686	25788	96	
3226	0	59690	25797	96	
3227	0	59695	25807	96	
3228	0	59702	25806	96	
3229	0	59716	25812	96	
3230	0	59727	25822	96	
3231	0	59726	25823	96	
3232	0	59726	25830	96	
3233	0	59734	25833	96	
3234	0	59738	25834	96	
3235	0	59746	25840	96	
3236	0	59758	25845	96	
3237	0	59766	25849	96	
3238	0	59767	25850	96	
3239	0	59773	25856	96	
3240	0	59774	25860	96	
3241	0	59785	25861	96	
3242	0	59796	25865	96	
3243	0	59799	25871	96	
3244	0	59803	25872	96	
3245	0	59815	25877	96	
3246	0	59818	25881	96	
3247	0	59837	25892	96	
3248	0	59839	25888	96	
3249	0	59846	25897	96	
3250	0	59853	25902	96	
3251	0	59860	25909	96	
3252	0	59861	25911	96	
3253	0	59870	25919	96	
3254	0	59884	25919	96	
3255	0	59887	25925	96	
3256	0	59889	25934	96	
3257	0	59902	25939	96	
3258	0	59907	25940	96	
3259	0	59923	25947	96	
3260	0	59931	25952	96	
3261	0	59935	25957	96	
3262	0	59938	25963	96	
3263	0	59952	25968	96	
3264	0	59949	25970	96	
3265	0	59971	25977	96	
3266	0	59974	25983	96	
3267	0	59975	25983	96	
3268	0	59982	25990	96	
3269	0	59986	25994	96	
3270	0	59979	25992	96	
3271	0	59961	25983	96	
3272	0	59932	25970	96	
3273	0	59891	25947	96	
3274	0	59853	25924	96	
3275	0	59824	25910	96	
3276	0	59775	25878	96	
3277	0	59736	25852	96	
3278	0	59704	25827	96	
3279	0	59666	25806	96	
3280	0	59653	25786	96	
3281	0	59634	25776	96	
3282	0	59625	25761	96	
3283	0	59618	25760	96	
3284	0	59606	25754	96	
3285	0	59618	25757	93	
3286	0	59611	25754	93	
3287	0	59625	25752	93	
3288	0	59627	25754	93	
3289	0	59621	25759	93	
3290	0	59632	25756	93	
3291	0	59636	25761	93	
3292	0	59638	25756	93	
3293	0	59632	25762	93	
3294	0	59646	25764	93	
3295	0	59645	25770	93	
3296	0	59651	25769	93	
3297	0	59649	25772	93	
3298	0	59653	25773	93	
3299	0	59659	25770	93	
3300	0	59656	25769	93	
3301	0	59651	25775	93	
3302	0	59652	25772	93	
3303	0	59659	25773	93	
3304	0	59648	25768	93	
3305	0	59656	25773	93	
3306	0	59652	25764	93	
3307	0	59640	25765	93	
3308	0	59643	25765	93	
3309	0	59649	25767	93	
3310	0	59643	25769	93	
3311	0	59648	25773	93	
3312	0	59654	25771	93	
3313	0	59657	25771	93	
3314	0	59662	25774	93	
3315	0	59667	25781	93	
3316	0	59666	25784	93	
3317	0	59684	25795	93	
3318	0	59684	25796	93	
3319	0	59690	25799	93	
3320	0	59703	25807	93	
3321	0	59711	25810	93	
3322	0	59708	25818	93	
3323	0	59720	25822	93	
3324	0	59733	25824	93	
3325	0	59730	25831	93	
3326	0	59741	25836	93	
3327	0	59759	25845	93	
3328	0	59761	25846	93	
3329	0	59768	25853	93	
3330	0	59775	25861	93	
3331	0	59785	25865	93	
3332	0	59787	25864	93	
3333	0	59797	25869	93	
3334	0	59797	25876	93	
3335	0	59802	25882	93	
3336	0	59807	25883	93	
3337	0	59813	25887	93	
3338	0	59821	25894	93	
3339	0	59827	25896	93	
3340	0	59837	25901	93	
3341	0	59840	25904	93	
3342	0	59855	25905	93	
3343	0	59859	25912	93	
3344	0	59860	25915	93	
3345	0	59866	25912	93	
3346	0	59876	25919	93	
3347	0	59875	25928	93	
3348	0	59887	25929	93	
3349	0	59895	25938	93	
3350	0	59899	25940	93	
3351	0	59911	25945	93	
3352	0	59913	25946	93	
3353	0	59920	25952	93	
3354	0	59928	25958	93	
3355	0	59927	25961	93	
3356	0	59941	25964	93	
3357	0	59944	25970	93	
3358	0	59957	25979	93	
3359	0	59959	25988	93	
3360	0	59963	25988	93	
3361	0	59973	25996	93	
3362	0	59992	25994	93	
3363	0	59997	26002	93	
3364	0	59993	26006	93	
3365	0	60000	26011	93	
3366	0	60018	26014	93	
3367	0	60024	26024	93	
3368	0	60034	26026	93	
3369	0	60040	26029	93	
3370	0	60040	26030	93	
3371	0	60036	26029	93	
3372	0	60011	26020	93	
3373	0	59997	26011	93	
3374	0	59952	25993	93	
3375	0	59918	25973	93	
3376	0	59878	25945	93	
3377	0	59836	25923	93	
3378	0	59786	25891	93	
3379	0	59750	25863	93	
3380	0	59708	25841	93	
3381	0	59682	25817	93	
3382	0	59669	25801	93	
3383	0	59652	25793	93	
3384	0	59638	25778	93	
3385	0	59637	25772	93	
3386	0	59621	25767	93	
3387	0	59629	25763	93	
3388	0	59620	25764	93	
3389	0	59621	25763	93	
3390	0	59623	25761	93	
3391	0	59619	25764	93	
3392	0	59618	25761	93	
3393	0	59621	25759	93	
3394	0	59616	25755	93	
3395	0	59624	25759	93	
3396	0	59615	25756	93	
3397	0	59614	25754	93	
3398	0	59625	25756	93	
3399	0	59621	25758	93	
3400	0	59620	25759	93	
3401	0	59621	25763	93	
3402	0	59626	25761	93	
3403	0	59619	25761	93	
3404	0	59622	25759	93	
3405	0	59625	25762	93	
3406	0	59634	25758	93	
3407	0	59630	25767	93	
3408	0	59628	25759	93	
3409	0	59621	25760	93	
3410	0	59623	25762	93	
3411	0	59613	25754	93	
3412	0	59620	25752	93	
3413	0	59626	25762	93	
3414	0	59619	25764	93	
3415	0	59630	25765	93	
3416	0	59633	25764	93	
3417	0	59634	25773	93	
3418	0	59643	25768	93	
3419	0	59649	25780	93	
3420	0	59645	25778	93	
3421	0	59657	25788	93	
3422	0	59660	25789	93	
3423	0	59677	25796	93	
3424	0	59680	25799	93	
3425	0	59687	25809	93	
3426	0	59697	25807	93	
3427	0	59703	25823	93	
3428	0	59714	25822	93	
3429	0	59719	25830	93	
3430	0	59732	25829	93	
3431	0	59737	25843	93	
3432	0	59747	25841	93	
3433	0	59757	25851	93	
3434	0	59753	25853	93	
3435	0	59764	25857	93	
3436	0	59779	25860	93	
3437	0	59782	25865	93	
3438	0	59786	25870	93	
3439	0	59795	25879	93	
3440	0	59789	25876	93	
3441	0	59796	25886	93	
3442	0	59810	25886	93	
3443	0	59815	25893	93	
3444	0	59821	25896	93	
3445	0	59823	25899	93	
3446	0	59830	25901	93	
3447	0	59843	25908	93	
3448	0	59843	25911	93	
3449	0	59851	25916	93	
3450	0	59857	25919	93	
3451	0	59872	25924	93	
3452	0	59874	25926	93	
3453	0	59875	25929	93	
3454	0	59888	25939	93	
3455	0	59894	25941	93	
3456	0	59907	25940	93	
3457	0	59904	25951	93	
3458	0	59908	25951	93	
3459	0	59917	25955	93	
3460	0	59937	25968	93	
3461	0	59942	25966	93	
3462	0	59942	25977	93	
3463	0	59955	25981	93	
3464	0	59965	25982	93	
3465	0	59965	25987	93	
3466	0	59973	25987	93	
3467	0	59982	25997	93	
3468	0	59992	25999	93	
3469	0	60005	26007	93	
3470	0	60005	26007	93	
3471	0	60012	26013	93	
3472	0	60020	26019	93	
3473	0	60020	26027	93	
3474	0	60028	26030	93	
3475	0	60045	26038	93	
3476	0	60052	26037	93	
3477	0	60045	26041	93	
3478	0	60033	26039	93	
3479	0	60020	26033	93	
3480	0	59997	26014	93	
3481	0	59964	25995	93	
3482	0	59922	25967	93	
3483	0	59875	25953	93	
3484	0	59831	25920	93	
3485	0	59787	25888	93	
3486	0	59749	25863	93	
3487	0	59715	25843	93	
3488	0	59688	25824	93	
3489	0	59671	25816	93	
3490	0	59665	25798	93	
3491	0	59657	25788	93	
3492	0	59644	25779	93	
3493	0	59641	25778	93	
3494	0	59646	25777	93	
3495	0	59644	25777	93	
3496	0	59643	25779	93	
3497	0	59642	25781	93	
3498	0	59645	25776	93	
3499	0	59644	25775	93	
3500	0	59641	25776	93	
3501	0	59639	25776	93	
3502	0	59644	25777	93	
3503	0	59644	25781	93	
3504	0	59646	25780	93	
3505	0	59648	25776	93	
3506	0	59637	25776	93	
3507	0	59646	25786	93	
3508	0	59649	25790	93	
3509	0	59652	25785	93	
3510	0	59651	25783	93	
3511	0	59648	25781	93	
3512	0	59642	25778	93	
3513	0	59634	25780	93	
3514	0	59637	25780	93	
3515	0	59635	25778	93	
3516	0	59628	25776	93	
3517	0	59626	25773	93	
3518	0	59629	25773	93	
3519	0	59629	25772	93	
3520	0	59628	25770	93	
3521	0	59628	25770	93	
3522	0	59627	25774	93	
3523	0	59631	25777	93	
3524	0	59644	25780	93	
3525	0	59640	25786	93	
3526	0	59651	25787	93	
3527	0	59658	25792	93	
3528	0	59662	25790	93	
3529	0	59669	25797	93	
3530	0	59673	25802	93	
3531	0	59689	25810	93	
3532	0	59690	25814	93	
3533	0	59699	25821	93	
3534	0	59707	25822	93	
3535	0	59721	25832	93	
3536	0	59726	25837	93	
3537	0	59729	25839	93	
3538	0	59742	25844	93	
3539	0	59750	25854	93	
3540	0	59748	25853	93	
3541	0	59756	25859	93	
3542	0	59765	25864	93	
3543	0	59766	25863	93	
3544	0	59778	25870	93	
3545	0	59782	25876	93	
3546	0	59785	25879	93	
3547	0	59790	25882	93	
3548	0	59793	25883	93	
3549	0	59798	25889	93	
3550	0	59805	25891	93	
3551	0	59804	25899	93	
3552	0	59811	25900	93	
3553	0	59818	25904	93	
3554	0	59825	25907	93	
3555	0	59838	25915	93	
3556	0	59833	25915	93	
3557	0	59845	25915	93	
3558	0	59843	25920	93	
3559	0	59851	25928	93	
3560	0	59854	25927	93	
3561	0	59863	25932	93	
3562	0	59872	25934	93	
3563	0	59871	25939	93	
3564	0	59891	25943	93	
3565	0	59893	25948	93	
3566	0	59902	25955	93	
3567	0	59916	25962	93	
3568	0	59916	25968	93	
3569	0	59931	25974	93	
3570	0	59925	25979	93	
3571	0	59936	25979	93	
3572	0	59951	25983	93	
3573	0	59949	25984	93	
3574	0	59961	25987	93	
3575	0	59967	25998	93	
3576	0	59977	26002	93	
3577	0	59984	26000	93	
3578	0	59976	26004	93	
3579	0	59964	26000	93	
3580	0	59958	25991	93	
3581	0	59926	25977	93	
3582	0	59883	25960	93	
3583	0	59846	25937	93	
3584	0	59806	25908	93	
3585	0	59757	25880	93	
3586	0	59713	25852	93	
3587	0	59679	25828	93	
3588	0	59654	25807	93	
3589	0	59621	25793	93	
3590	0	59613	25778	93	
3591	0	59592	25768	93	
3592	0	59592	25760	93	
3593	0	59588	25750	93	
3594	0	59591	25750	93	
3595	0	59588	25746	93	
3596	0	59589	25749	93	
3597	0	59585	25748	93	
3598	0	59589	25744	93	
3599	0	59589	25747	93	
3600	0	59588	25746	93	
3601	0	59586	25745	93	
3602	0	59582	25745	93	
3603	0	59588	25747	93	
3604	0	59591	25745	93	
3605	0	59587	25747	93	
3606	0	59595	25750	93	
3607	0	59599	25749	93	
3608	0	59595	25751	93	
3609	0	59600	25753	93	
3610	0	59594	25757	93	
3611	0	59596	25750	93	
3612	0	59583	25751	93	
3613	0	59591	25750	93	
3614	0	59581	25753	93	
3615	0	59578	25746	93	
3616	0	59582	25748	93	
3617	0	59581	25744	93	
3618	0	59581	25744	93	
3619	0	59577	25745	93	
3620	0	59575	25747	93	
3621	0	59584	25745	93	
3622	0	59585	25747	93	
3623	0	59594	25748	93	
3624	0	59590	25750	93	
3625	0	59600	25755	93	
3626	0	59605	25762	93	
3627	0	59612	25767	93	
3628	0	59614	25771	93	
3629	0	59635	25777	93	
3630	0	59646	25777	93	
3631	0	59647	25784	93	
3632	0	59652	25789	93	
3633	0	59665	25797	93	
3634	0	59669	25806	93	
3635	0	59682	25809	93	
3636	0	59682	25810	93	
3637	0	59698	25817	93	
3638	0	59705	25822	93	
3639	0	59718	25825	93	
3640	0	59722	25830	93	
3641	0	59734	25835	93	
3642	0	59734	25842	93	
3643	0	59743	25845	93	
3644	0	59748	25850	93	
3645	0	59752	25858	93	
3646	0	59752	25854	93	
3647	0	59764	25864	93	
3648	0	59773	25864	93	
3649	0	59774	25868	93	
3650	0	59789	25874	93	
3651	0	59788	25878	93	
3652	0	59800	25884	93	
3653	0	59801	25887	93	
3654	0	59803	25892	93	
3655	0	59813	25897	93	
3656	0	59822	25900	93	
3657	0	59825	25905	93	
3658	0	59833	25907	93	
3659	0	59840	25905	93	
3660	0	59844	25910	93	
3661	0	59850	25917	93	
3662	0	59853	25919	93	
3663	0	59862	25924	93	
3664	0	59869	25932	93	
3665	0	59876	25936	93	
3666	0	59887	25939	93	
3667	0	59896	25948	93	
3668	0	59907	25948	93	
3669	0	59911	25956	93	
3670	0	59915	25954	93	
3671	0	59921	25961	93	
3672	0	59934	25963	93	
3673	0	59932	25967	93	
3674	0	59941	25978	93	
3675	0	59954	25985	93	
3676	0	59966	25990	93	
3677	0	59973	25998	93	
3678	0	59980	25998	93	
3679	0	59977	26004	93	
3680	0	59973	26004	93	
3681	0	59966	25998	93	
3682	0	59946	25989	93	
3683	0	59913	25978	93	
3684	0	59876	25959	93	
3685	0	59832	25931	93	
3686	0	59788	25902	93	
3687	0	59749	25878	93	
3688	0	59698	25847	93	
3689	0	59669	25823	93	
3690	0	59637	25801	93	
3691	0	59600	25779	93	
3692	0	59583	25763	93	
3693	0	59566	25755	93	
3694	0	59556	25740	93	
3695	0	59556	25738	93	
3696	0	59548	25733	93	
3697	0	59555	25727	93	
3698	0	59556	25726	93	
3699	0	59560	25733	93	
3700	0	59561	25729	93	
3701	0	59553	25729	93	
3702	0	59554	25727	93	
3703	0	59557	25724	93	
3704	0	59551	25724	93	
3705	0	59546	25724	93	
3706	0	59558	25724	93	
3707	0	59549	25723	93	
3708	0	59556	25726	93	
3709	0	59551	25728	93	
3710	0	59562	25723	93	
3711	0	59561	25725	93	
3712	0	59560	25725	93	
3713	0	59554	25722	93	
3714	0	59550	25723	93	
3715	0	59561	25725	93	
3716	0	59555	25724	93	
3717	0	59558	25726	93	
3718	0	59548	25722	93	
3719	0	59545	25720	93	
3720	0	59551	25726	93	
3721	0	59558	25721	93	
3722	0	59547	25722	93	
3723	0	59561	25728	93	
3724	0	59562	25726	93	
3725	0	59558	25727	93	
3726	0	59568	25733	93	
3727	0	59577	25734	93	
3728	0	59580	25734	93	
3729	0	59589	25745	93	
3730	0	59594	25749	93	
3731	0	59601	25755	93	
3732	0	59612	25757	93	
3733	0	59611	25766	93	
3734	0	59623	25768	93	
3735	0	59641	25776	93	
3736	0	59648	25777	93	
3737	0	59652	25784	93	
3738	0	59654	25795	93	
3739	0	59673	25799	93	
3740	0	59677	25806	93	
3741	0	59689	25811	93	
3742	0	59689	25817	93	
3743	0	59696	25820	93	
3744	0	59714	25827	93	
3745	0	59714	25827	93	
3746	0	59723	25834	93	
3747	0	59729	25840	93	
3748	0	59730	25836	93	
3749	0	59745	25846	93	
3750	0	59751	25850	93	
3751	0	59753	25852	93	
3752	0	59756	25859	93	
3753	0	59768	25865	93	
3754	0	59772	25864	93	
3755	0	59784	25870	93	
3756	0	59788	25873	93	
3757	0	59790	25882	93	
3758	0	59799	25883	93	
3759	0	59794	25885	93	
3760	0	59799	25893	93	
3761	0	59811	25895	93	
3762	0	59824	25900	93	
3763	0	59832	25906	93	
3764	0	59831	25905	93	
3765	0	59842	25917	93	
3766	0	59848	25915	93	
3767	0	59848	25922	93	
3768	0	59863	25923	93	
3769	0	59869	25928	93	
3770	0	59878	25934	93	
3771	0	59880	25943	93	
3772	0	59880	25943	93	
3773	0	59895	25952	93	
3774	0	59902	25952	93	
3775	0	59914	25963	93	
3776	0	59926	25963	93	
3777	0	59932	25969	93	
3778	0	59936	25972	93	
3779	0	59934	25977	93	
3780	0	59953	25978	93	
3781	0	59953	25983	93	
3782	0	59968	25986	93	
3783	0	59974	25990	93	
3784	0	59984	25994	93	
3785	0	59973	25995	93	
3786	0	59967	25990	93	
3787	0	59938	25983	93	
3788	0	59913	25964	93	
3789	0	59872	25943	93	
3790	0	59830	25917	93	
3791	0	59783	25890	93	
3792	0	59733	25861	93	
3793	0	59692	25834	93	
3794	0	59652	25814	93	
3795	0	59624	25787	93	
3796	0	59598	25769	93	
3797	0	59576	25756	93	
3798	0	59565	25740	93	
3799	0	59557	25732	93	
3800	0	59551	25728	93	
3801	0	59551	25727	93	
3802	0	59549	25725	93	
3803	0	59559	25727	93	
3804	0	59569	25731	93	
3805	0	59565	25728	93	
3806	0	59571	25728	93	
3807	0	59568	25730	93	
3808	0	59577	25727	93	
3809	0	59577	25730	93	
3810	0	59575	25732	93	
3811	0	59579	25735	93	
3812	0	59588	25737	93	
3813	0	59580	25740	93	
3814	0	59589	25737	93	
3815	0	59594	25742	93	
3816	0	59588	25740	93	
3817	0	59587	25739	93	
3818	0	59579	25735	93	
3819	0	59570	25735	93	
3820	0	59570	25734	93	
3821	0	59563	25733	93	
3822	0	59562	25728	93	
3823	0	59565	25726	93	
3824	0	59567	25727	93	
3825	0	59552	25719	93	
3826	0	59555	25722	93	
3827	0	59560	25721	93	
3828	0	59565	25728	93	
3829	0	59561	25726	93	
3830	0	59566	25732	93	
3831	0	59578	25732	93	
3832	0	59579	25732	93	
3833	0	59589	25740	93	
3834	0	59590	25745	93	
3835	0	59598	25752	93	
3836	0	59602	25756	93	
3837	0	59611	25756	93	
3838	0	59621	25763	93	
3839	0	59630	25763	93	
3840	0	59637	25770	93	
3841	0	59649	25772	93	
3842	0	59657	25782	93	
3843	0	59672	25788	93	
3844	0	59679	25795	93	
3845	0	59687	25803	93	
3846	0	59702	25805	93	
3847	0	59703	25812	93	
3848	0	59712	25814	93	
3849	0	59713	25818	93	
3850	0	59725	25822	93	
3851	0	59734	25829	93	
3852	0	59734	25839	93	
3853	0	59748	25838	93	
3854	0	59754	25840	93	
3855	0	59749	25845	93	
3856	0	59758	25849	93	
3857	0	59762	25852	93	
3858	0	59771	25854	93	
3859	0	59782	25853	93	
3860	0	59783	25859	93	
3861	0	59795	25860	93	
3862	0	59791	25866	93	
3863	0	59799	25876	93	
3864	0	59808	25878	93	
3865	0	59807	25876	93	
3866	0	59823	25885	93	
3867	0	59821	25890	93	
3868	0	59832	25895	93	
3869	0	59838	25901	93	
3870	0	59840	25902	93	
3871	0	59847	25905	93	
3872	0	59862	25908	93	
3873	0	59872	25916	93	
3874	0	59874	25919	93	
3875	0	59888	25925	93	
3876	0	59888	25933	93	
3877	0	59897	25938	93	
3878	0	59901	25938	93	
3879	0	59914	25946	93	
3880	0	59913	25945	93	
3881	0	59927	25952	93	
3882	0	59936	25957	93	
3883	0	59943	25959	93	
3884	0	59948	25964	93	
3885	0	59944	25961	93	
3886	0	59926	25957	93	
3887	0	59903	25938	93	
3888	0	59865	25924	93	
3889	0	59823	25906	93	
3890	0	59780	25873	93	
3891	0	59727	25848	93	
3892	0	59684	25817	93	
3893	0	59639	25788	93	
3894	0	59595	25764	93	
3895	0	59559	25735	93	
3896	0	59535	25719	93	
3897	0	59520	25703	93	
3898	0	59506	25691	93	
3899	0	59507	25692	93	
3900	0	59503	25682	93	
3901	0	59503	25680	93	
3902	0	59495	25677	93	
3903	0	59498	25681	93	
3904	0	59511	25675	93	
3905	0	59504	25672	93	
3906	0	59508	25672	93	
3907	0	59500	25674	93	
3908	0	59503	25675	93	
3909	0	59497	25670	93	
3910	0	59497	25667	93	
3911	0	59505	25669	93	
3912	0	59505	25670	93	
3913	0	59508	25675	93	
3914	0	59512	25672	93	
3915	0	59513	25674	93	
3916	0	59506	25673	93	
3917	0	59506	25671	93	
3918	0	59508	25675	93	
3919	0	59511	25673	93	
3920	0	59494	25672	93	
3921	0	59498	25667	93	
3922	0	59498	25668	93	
3923	0	59498	25668	93	
3924	0	59501	25661	93	
3925	0	59488	25668	93	
3926	0	59488	25666	93	
3927	0	59498	25666	93	
3928	0	59496	25664	93	
3929	0	59506	25669	93	
3930	0	59503	25675	93	
3931	0	59508	25680	93	
3932	0	59526	25678	93	
3933	0	59530	25688	93	
3934	0	59534	25689	93	
3935	0	59551	25696	93	
3936	0	59561	25704	93	
3937	0	59562	25708	93	
3938	0	59577	25715	93	
3939	0	59581	25722	93	
3940	0	59599	25723	93	
3941	0	59603	25737	93	
3942	0	59617	25737	93	
3943	0	59629	25748	93	
3944	0	59632	25751	93	
3945	0	59641	25757	93	
3946	0	59646	25755	93	
3947	0	59654	25765	93	
3948	0	59675	25770	93	
3949	0	59684	25779	93	
3950	0	59692	25783	93	
3951	0	59697	25787	93	
3952	0	59694	25789	93	
3953	0	59714	25794	93	
3954	0	59713	25796	93	
3955	0	59719	25800	93	
3956	0	59728	25805	93	
3957	0	59732	25809	93	
3958	0	59740	25809	93	
3959	0	59744	25818	93	
3960	0	59745	25821	93	
3961	0	59758	25825	93	
3962	0	59771	25826	93	
3963	0	59780	25832	93	
3964	0	59780	25837	93	
3965	0	59784	25839	93	
3966	0	59796	25846	93	
3967	0	59808	25856	93	
3968	0	59810	25855	93	
3969	0	59827	25860	93	
3970	0	59834	25861	93	
3971	0	59844	25874	93	
3972	0	59847	25880	93	
3973	0	59859	25887	93	
3974	0	59859	25887	93	
3975	0	59877	25891	93	
3976	0	59885	25891	93	
3977	0	59896	25902	93	
3978	0	59900	25900	93	
3979	0	59906	25911	93	
3980	0	59909	25911	93	
3981	0	59928	25915	93	
3982	0	59928	25918	93	
3983	0	59947	25932	93	
3984	0	59950	25932	93	
3985	0	59964	25940	93	
3986	0	59978	25941	93	
3987	0	59968	25949	93	
3988	0	59973	25947	93	
3989	0	59960	25938	93	
3990	0	59928	25926	93	
3991	0	59891	25907	93	
3992	0	59841	25881	93	
3993	0	59793	25856	93	
3994	0	59745	25822	93	
3995	0	59698	25796	93	
3996	0	59654	25761	93	
3997	0	59618	25740	93	
3998	0	59580	25710	93	
3999	0	59556	25700	93	
4000	0	59541	25677	93	
4001	0	59520	25668	93	
4002	0	59512	25654	93	
4003	0	59509	25655	93	
4004	0	59512	25649	93	
4005	0	59507	25651	93	
4006	0	59510	25644	93	
4007	0	59516	25653	93	
4008	0	59516	25649	93	
4009	0	59524	25650	93	
4010	0	59520	25647	93	
4011	0	59525	25649	93	
4012	0	59515	25646	93	
4013	0	59521	25649	93	
4014	0	59522	25646	93	
4015	0	59526	25652	93	
4016	0	59528	25650	93	
4017	0	59530	25653	93	
4018	0	59522	25652	93	
4019	0	59523	25646	93	
4020	0	59531	25649	93	
4021	0	59523	25654	93	
4022	0	59524	25651	93	
4023	0	59525	25653	93	
4024	0	59528	25653	93	
4025	0	59521	25647	93	
4026	0	59525	25648	93	
4027	0	59518	25651	93	
4028	0	59522	25647	93	
4029	0	59522	25652	93	
4030	0	59531	25646	93	
4031	0	59534	25650	93	
4032	0	59532	25647	93	
4033	0	59543	25657	93	
4034	0	59545	25655	93	
4035	0	59556	25658	93	
4036	0	59558	25660	93	
4037	0	59573	25663	93	
4038	0	59579	25667	93	
4039	0	59592	25681	93	
4040	0	59594	25681	93	
4041	0	59610	25690	93	
4042	0	59611	25696	93	
4043	0	59626	25705	93	
4044	0	59636	25709	93	
4045	0	59645	25715	93	
4046	0	59657	25723	93	
4047	0	59664	25730	93	
4048	0	59682	25736	93	
4049	0	59687	25740	93	
4050	0	59690	25744	93	
4051	0	59704	25749	93	
4052	0	59711	25749	93	
4053	0	59722	25759	93	
4054	0	59728	25767	93	
4055	0	59729	25765	93	
4056	0	59736	25772	93	
4057	0	59745	25778	93	
4058	0	59748	25777	93	
4059	0	59761	25781	93	
4060	0	59770	25788	93	
4061	0	59770	25794	93	
4062	0	59781	25789	93	
4063	0	59777	25802	93	
4064	0	59797	25801	93	
4065	0	59792	25806	93	
4066	0	59806	25805	93	
4067	0	59808	25810	93	
4068	0	59813	25813	93	
4069	0	59818	25820	93	
4070	0	59825	25821	93	
4071	0	59843	25831	93	
4072	0	59840	25834	93	
4073	0	59854	25839	93	
4074	0	59856	25843	93	
4075	0	59869	25847	93	
4076	0	59871	25847	93	
4077	0	59882	25851	93	
4078	0	59883	25861	93	
4079	0	59893	25864	93	
4080	0	59904	25867	93	
4081	0	59917	25876	93	
4082	0	59928	25882	93	
4083	0	59940	25885	93	
4084	0	59943	25892	93	
4085	0	59948	25895	93	
4086	0	59953	25900	93	
4087	0	59961	25903	93	
4088	0	59975	25910	93	
4089	0	59966	25907	93	
4090	0	59943	25890	93	
4091	0	59921	25883	93	
4092	0	59882	25860	93	
4093	0	59833	25835	93	
4094	0	59784	25809	93	
4095	0	59742	25781	93	
4096	0	59699	25748	93	
4097	0	59658	25721	93	
4098	0	59619	25699	93	
4099	0	59587	25680	93	
4100	0	59575	25667	93	
4101	0	59549	25653	93	
4102	0	59542	25640	93	
4103	0	59544	25639	93	
4104	0	59538	25639	93	
4105	0	59540	25637	93	
4106	0	59543	25637	93	
4107	0	59549	25642	93	
4108	0	59555	25643	93	
4109	0	59560	25649	93	
4110	0	59562	25651	93	
4111	0	59568	25649	93	
4112	0	59572	25653	93	
4113	0	59571	25654	93	
4114	0	59584	25657	93	
4115	0	59584	25660	93	
4116	0	59595	25662	93	
4117	0	59587	25664	93	
4118	0	59598	25663	93	
4119	0	59596	25665	93	
4120	0	59594	25663	93	
4121	0	59599	25668	93	
4122	0	59589	25668	93	
4123	0	59590	25664	93	
4124	0	59579	25661	93	
4125	0	59585	25663	93	
4126	0	59584	25660	93	
4127	0	59576	25660	93	
4128	0	59578	25655	93	
4129	0	59580	25658	93	
4130	0	59575	25654	93	
4131	0	59585	25663	93	
4132	0	59582	25657	93	
4133	0	59586	25658	93	
4134	0	59597	25663	93	
4135	0	59608	25670	93	
4136	0	59605	25676	93	
4137	0	59620	25680	93	
4138	0	59633	25682	93	
4139	0	59639	25692	93	
4140	0	59647	25695	93	
4141	0	59660	25702	93	
4142	0	59671	25706	93	
4143	0	59687	25715	93	
4144	0	59686	25716	93	
4145	0	59695	25727	93	
4146	0	59712	25734	93	
4147	0	59717	25735	93	
4148	0	59729	25743	93	
4149	0	59739	25749	93	
4150	0	59734	25750	93	
4151	0	59747	25762	93	
4152	0	59762	25766	93	
4153	0	59767	25771	93	
4154	0	59767	25773	93	
4155	0	59776	25780	93	
4156	0	59792	25785	93	
4157	0	59794	25786	93	
4158	0	59802	25790	93	
4159	0	59801	25796	93	
4160	0	59814	25800	93	
4161	0	59816	25801	93	
4162	0	59819	25805	93	
4163	0	59828	25811	93	
4164	0	59838	25812	93	
4165	0	59844	25820	93	
4166	0	59849	25821	93	
4167	0	59852	25828	93	
4168	0	59861	25828	93	
4169	0	59874	25830	93	
4170	0	59878	25841	93	
4171	0	59885	25847	93	
4172	0	59887	25850	93	
4173	0	59899	25856	93	
4174	0	59907	25859	93	
4175	0	59923	25862	93	
4176	0	59918	25870	93	
4177	0	59930	25874	93	
4178	0	59936	25879	93	
4179	0	59940	25884	93	
4180	0	59954	25887	93	
4181	0	59961	25893	93	
4182	0	59970	25897	93	
4183	0	59979	25907	93	
4184	0	59990	25907	93	
4185	0	60001	25914	93	
4186	0	59992	25917	93	
4187	0	59988	25908	93	
4188	0	59958	25893	93	
4189	0	59931	25877	93	
4190	0	59890	25855	93	
4191	0	59840	25834	93	
4192	0	59788	25802	93	
4193	0	59736	25771	93	
4194	0	59688	25738	93	
4195	0	59643	25712	93	
4196	0	59605	25686	93	
4197	0	59574	25659	93	
4198	0	59561	25645	93	
4199	0	59543	25634	93	
4200	0	59521	25621	93	
4201	0	59523	25616	93	
4202	0	59515	25613	93	
4203	0	59529	25614	93	
4204	0	59526	25616	93	
4205	0	59537	25615	93	
4206	0	59534	25616	93	
4207	0	59527	25616	93	
4208	0	59521	25616	93	
4209	0	59526	25614	93	
4210	0	59522	25617	93	
4211	0	59523	25620	93	
4212	0	59520	25614	93	
4213	0	59531	25614	93	
4214	0	59524	25622	93	
4215	0	59527	25615	93	
4216	0	59535	25621	93	
4217	0	59528	25620	93	
4218	0	59532	25619	93	
4219	0	59528	25620	93	
4220	0	59526	25620	93	
4221	0	59529	25620	93	
4222	0	59531	25613	93	
4223	0	59527	25613	93	
4224	0	59520	25616	93	
4225	0	59530	25617	93	
4226	0	59526	25611	93	
4227	0	59530	25617	93	
4228	0	59517	25616	93	
4229	0	59523	25620	93	
4230	0	59527	25619	93	
4231	0	59529	25617	93	
4232	0	59543	25622	93	
4233	0	59547	25629	93	
4234	0	59560	25634	93	
4235	0	59569	25635	93	
4236	0	59569	25643	93	
4237	0	59573	25649	93	
4238	0	59592	25649	93	
4239	0	59597	25661	93	
4240	0	59604	25664	93	
4241	0	59625	25671	93	
4242	0	59624	25678	93	
4243	0	59637	25683	93	
4244	0	59650	25693	93	
4245	0	59655	25697	93	
4246	0	59663	25704	93	
4247	0	59674	25710	93	
4248	0	59688	25717	93	
4249	0	59688	25719	93	
4250	0	59703	25726	93	
4251	0	59700	25726	93	
4252	0	59715	25730	93	
4253	0	59719	25738	93	
4254	0	59724	25740	93	
4255	0	59730	25740	93	
4256	0	59744	25756	93	
4257	0	59749	25755	93	
4258	0	59752	25759	93	
4259	0	59763	25761	93	
4260	0	59766	25768	93	
4261	0	59778	25770	93	
4262	0	59777	25771	93	
4263	0	59787	25778	93	
4264	0	59791	25779	93	
4265	0	59795	25786	93	
4266	0	59811	25791	93	
4267	0	59827	25804	93	
4268	0	59830	25801	93	
4269	0	59840	25807	93	
4270	0	59839	25817	93	
4271	0	59854	25818	93	
4272	0	59858	25819	93	
4273	0	59873	25823	93	
4274	0	59875	25829	93	
4275	0	59881	25836	93	
4276	0	59886	25842	93	
4277	0	59898	25846	93	
4278	0	59916	25852	93	
4279	0	59925	25857	93	
4280	0	59929	25863	93	
4281	0	59941	25866	93	
4282	0	59943	25872	93	
4283	0	59957	25881	93	
4284	0	59958	25886	93	
4285	0	59975	25889	93	
4286	0	59981	25896	93	
4287	0	59995	25901	93	
4288	0	59992	25906	93	
4289	0	60003	25906	93	
4290	0	59989	25907	93	
4291	0	59969	25896	93	
4292	0	59942	25880	93	
4293	0	59897	25861	93	
4294	0	59854	25838	93	
4295	0	59808	25808	93	
4296	0	59751	25780	93	
4297	0	59715	25744	93	
4298	0	59661	25709	93	
4299	0	59623	25687	93	
4300	0	59592	25667	93	
4301	0	59569	25646	93	
4302	0	59552	25634	93	
4303	0	59538	25621	93	
4304	0	59529	25614	93	
4305	0	59528	25608	93	
4306	0	59518	25610	93	
4307	0	59522	25604	93	
4308	0	59524	25606	93	
4309	0	59531	25612	93	
4310	0	59526	25612	93	
4311	0	59529	25612	93	
4312	0	59536	25608	93	
4313	0	59536	25610	93	
4314	0	59537	25609	93	
4315	0	59540	25614	93	
4316	0	59542	25620	93	
4317	0	59547	25613	93	
4318	0	59548	25613	93	
4319	0	59545	25618	93	
4320	0	59548	25620	93	
4321	0	59551	25617	93	
4322	0	59546	25617	93	
4323	0	59545	25618	93	
4324	0	59545	25618	93	
4325	0	59541	25617	93	
4326	0	59535	25619	93	
4327	0	59538	25618	93	
4328	0	59542	25614	93	
4329	0	59542	25617	93	
4330	0	59530	25616	93	
4331	0	59542	25614	93	
4332	0	59536	25617	93	
4333	0	59548	25616	93	
4334	0	59548	25614	93	
4335	0	59555	25628	93	
4336	0	59559	25632	93	
4337	0	59565	25635	93	
4338	0	59573	25638	93	
4339	0	59575	25641	93	
4340	0	59590	25646	93	
4341	0	59597	25655	93	
4342	0	59605	25660	93	
4343	0	59619	25669	93	
4344	0	59624	25668	93	
4345	0	59633	25677	93	
4346	0	59636	25685	93	
4347	0	59663	25685	93	
4348	0	59666	25696	93	
4349	0	59669	25700	93	
4350	0	59677	25708	93	
4351	0	59686	25706	93	
4352	0	59691	25715	93	
4353	0	59703	25721	93	
4354	0	59711	25725	93	
4355	0	59718	25731	93	
4356	0	59722	25735	93	
4357	0	59726	25737	93	
4358	0	59727	25741	93	
4359	0	59739	25745	93	
4360	0	59741	25749	93	
4361	0	59751	25753	93	
4362	0	59750	25758	93	
4363	0	59758	25758	93	
4364	0	59761	25766	93	
4365	0	59767	25764	93	
4366	0	59776	25771	93	
4367	0	59780	25775	93	
4368	0	59788	25782	93	
4369	0	59795	25784	93	
4370	0	59798	25786	93	
4371	0	59817	25793	93	
4372	0	59812	25798	93	
4373	0	59824	25803	93	
4374	0	59840	25807	93	
4375	0	59839	25811	93	
4376	0	59847	25815	93	
4377	0	59858	25818	93	
4378	0	59861	25826	93	
4379	0	59869	25834	93	
4380	0	59880	25838	93	
4381	0	59895	25845	93	
4382	0	59907	25855	93	
4383	0	59911	25856	93	
4384	0	59924	25861	93	
4385	0	59925	25867	93	
4386	0	59916	25866	93	
4387	0	59910	25866	93	
4388	0	59904	25858	93	
4389	0	59869	25838	93	
4390	0	59836	25820	93	
4391	0	59792	25791	93	
4392	0	59741	25764	93	
4393	0	59696	25733	93	
4394	0	59642	25709	93	
4395	0	59612	25681	93	
4396	0	59577	25659	93	
4397	0	59539	25636	93	
4398	0	59523	25624	93	
4399	0	59512	25612	93	
4400	0	59498	25605	93	
4401	0	59498	25600	93	
4402	0	59502	25600	93	
4403	0	59508	25598	93	
4404	0	59507	25602	93	
4405	0	59508	25599	93	
4406	0	59512	25603	93	
4407	0	59516	25601	93	
4408	0	59522	25606	93	
4409	0	59523	25606	93	
4410	0	59528	25605	93	
4411	0	59523	25611	93	
4412	0	59528	25614	93	
4413	0	59537	25618	93	
4414	0	59542	25615	93	
4415	0	59541	25618	93	
4416	0	59542	25621	93	
4417	0	59540	25614	93	
4418	0	59547	25622	93	
4419	0	59542	25620	93	
4420	0	59540	25623	93	
4421	0	59542	25623	93	
4422	0	59537	25627	93	
4423	0	59532	25617	93	
4424	0	59533	25620	93	
4425	0	59541	25616	93	
4426	0	59539	25616	93	
4427	0	59534	25612	93	
4428	0	59542	25621	93	
4429	0	59541	25620	93	
4430	0	59552	25620	93	
4431	0	59558	25625	93	
4432	0	59556	25630	93	
4433	0	59573	25636	93	
4434	0	59576	25637	93	
4435	0	59589	25640	93	
4436	0	59595	25650	93	
4437	0	59604	25651	93	
4438	0	59615	25662	93	
4439	0	59624	25670	93	
4440	0	59632	25671	93	
4441	0	59646	25682	93	
4442	0	59646	25690	93	
4443	0	59663	25691	93	
4444	0	59665	25703	93	
4445	0	59680	25705	93	
4446	0	59678	25712	93	
4447	0	59701	25717	93	
4448	0	59699	25722	93	
4449	0	59717	25726	93	
4450	0	59714	25734	93	
4451	0	59727	25738	93	
4452	0	59734	25744	93	
4453	0	59741	25743	93	
4454	0	59740	25751	93	
4455	0	59750	25746	93	
4456	0	59761	25762	93	
4457	0	59763	25765	93	
4458	0	59776	25765	93	
4459	0	59787	25773	93	
4460	0	59783	25777	93	
4461	0	59796	25781	93	
4462	0	59797	25781	93	
4463	0	59798	25791	93	
4464	0	59806	25797	93	
4465	0	59811	25794	93	
4466	0	59821	25803	93	
4467	0	59831	25803	93	
4468	0	59842	25812	93	
4469	0	59846	25815	93	
4470	0	59853	25823	93	
4471	0	59859	25828	93	
4472	0	59874	25838	93	
4473	0	59877	25835	93	
4474	0	59880	25840	93	
4475	0	59896	25849	93	
4476	0	59903	25853	93	
4477	0	59916	25860	93	
4478	0	59924	25868	93	
4479	0	59934	25866	93	
4480	0	59926	25872	93	
4481	0	59930	25867	93	
4482	0	59910	25865	93	
4483	0	59882	25849	93	
4484	0	59841	25827	93	
4485	0	59798	25804	93	
4486	0	59745	25768	93	
4487	0	59704	25745	93	
4488	0	59646	25712	93	
4489	0	59608	25681	93	
4490	0	59571	25654	93	
4491	0	59533	25633	93	
4492	0	59514	25616	93	
4493	0	59490	25601	93	
4494	0	59479	25594	93	
4495	0	59472	25585	93	
4496	0	59471	25583	93	
4497	0	59473	25582	93	
4498	0	59477	25582	93	
4499	0	59479	25581	93	
4500	0	59481	25582	93	
4501	0	59471	25578	93	
4502	0	59481	25579	93	
4503	0	59469	25578	93	
4504	0	59480	25576	93	
4505	0	59477	25581	93	
4506	0	59475	25580	93	
4507	0	59474	25576	93	
4508	0	59485	25581	93	
4509	0	59486	25586	93	
4510	0	59494	25589	93	
4511	0	59499	25590	93	
4512	0	59499	25595	93	
4513	0	59497	25588	93	
4514	0	59501	25590	93	
4515	0	59499	25592	93	
4516	0	59503	25598	93	
4517	0	59494	25596	93	
4518	0	59500	25596	93	
4519	0	59500	25594	93	
4520	0	59500	25592	93	
4521	0	59502	25592	93	
4522	0	59502	25592	93	
4523	0	59506	25598	93	
4524	0	59512	25598	93	
4525	0	59513	25600	93	
4526	0	59514	25601	93	
4527	0	59531	25607	93	
4528	0	59538	25613	93	
4529	0	59539	25617	93	
4530	0	59553	25628	93	
4531	0	59563	25626	93	
4532	0	59566	25637	93	
4533	0	59582	25642	93	
4534	0	59590	25651	93	
4535	0	59598	25655	93	
4536	0	59612	25665	93	
4537	0	59622	25668	93	
4538	0	59632	25681	93	
4539	0	59638	25685	93	
4540	0	59654	25691	93	
4541	0	59655	25694	93	
4542	0	59673	25705	93	
4543	0	59676	25715	93	
4544	0	59685	25718	93	
4545	0	59701	25724	93	
4546	0	59709	25726	93	
4547	0	59711	25733	93	
4548	0	59720	25737	93	
4549	0	59725	25744	93	
4550	0	59737	25743	93	
4551	0	59741	25751	93	
4552	0	59750	25753	93	
4553	0	59758	25754	93	
4554	0	59759	25758	93	
4555	0	59764	25766	93	
4556	0	59771	25767	93	
4557	0	59783	25772	93	
4558	0	59787	25780	93	
4559	0	59798	25787	93	
4560	0	59803	25793	93	
4561	0	59816	25789	93	
4562	0	59819	25802	93	
4563	0	59822	25803	93	
4564	0	59842	25807	93	
4565	0	59848	25816	93	
4566	0	59857	25822	93	
4567	0	59865	25825	93	
4568	0	59865	25836	93	
4569	0	59874	25840	93	
4570	0	59893	25842	93	
4571	0	59901	25849	93	
4572	0	59912	25856	93	
4573	0	59916	25855	93	
4574	0	59926	25865	93	
4575	0	59930	25864	93	
4576	0	59946	25875	93	
4577	0	59947	25879	93	
4578	0	59966	25886	93	
4579	0	59980	25888	93	
4580	0	59976	25900	93	
4581	0	59987	25905	93	
4582	0	59994	25906	93	
4583	0	59996	25909	93	
4584	0	59992	25904	93	
4585	0	59977	25899	93	
4586	0	59952	25887	93	
4587	0	59912	25868	93	
4588	0	59870	25843	93	
4589	0	59822	25818	93	
4590	0	59777	25787	93	
4591	0	59738	25755	93	
4592	0	59689	25728	93	
4593	0	59641	25705	93	
4594	0	59613	25683	93	
4595	0	59592	25663	93	
4596	0	59580	25654	93	
4597	0	59559	25640	93	
4598	0	59552	25631	93	
4599	0	59553	25625	93	
4600	0	59560	25630	93	
4601	0	59563	25631	93	
4602	0	59567	25630	93	
4603	0	59573	25633	93	
4604	0	59574	25639	93	
4605	0	59578	25639	93	
4606	0	59579	25644	93	
4607	0	59585	25642	93	
4608	0	59586	25649	93	
4609	0	59593	25650	93	
4610	0	59600	25654	93	
4611	0	59608	25657	93	
4612	0	59606	25662	93	
4613	0	59607	25658	93	
4614	0	59606	25661	93	
4615	0	59607	25663	93	
4616	0	59598	25661	93	
4617	0	59602	25663	93	
4618	0	59602	25659	93	
4619	0	59592	25652	93	
4620	0	59590	25655	93	
4621	0	59586	25648	93	
4622	0	59590	25649	93	
4623	0	59579	25649	93	
4624	0	59580	25647	93	
4625	0	59585	25649	93	
4626	0	59594	25652	93	
4627	0	59598	25661	93	
4628	0	59606	25662	93	
4629	0	59609	25664	93	
4630	0	59616	25671	93	
4631	0	59625	25676	93	
4632	0	59625	25679	93	
4633	0	59642	25681	93	
4634	0	59647	25691	93	
4635	0	59661	25692	93	
4636	0	59667	25701	93	
4637	0	59674	25707	93	
4638	0	59688	25716	93	
4639	0	59692	25723	93	
4640	0	59708	25725	93	
4641	0	59715	25735	93	
4642	0	59718	25739	93	
4643	0	59738	25749	93	
4644	0	59744	25755	93	
4645	0	59746	25763	93	
4646	0	59756	25766	93	
4647	0	59767	25770	93	
4648	0	59776	25774	93	
4649	0	59775	25779	93	
4650	0	59777	25783	93	
4651	0	59784	25788	93	
4652	0	59790	25787	93	
4653	0	59809	25801	93	
4654	0	59803	25804	93	
4655	0	59808	25805	93	
4656	0	59828	25812	93	
4657	0	59824	25815	93	
4658	0	59834	25817	93	
4659	0	59842	25821	93	
4660	0	59844	25827	93	
4661	0	59847	25829	93	
4662	0	59851	25832	93	
4663	0	59863	25836	93	
4664	0	59873	25841	93	
4665	0	59881	25844	93	
4666	0	59897	25853	93	
4667	0	59904	25856	93	
4668	0	59903	25863	93	
4669	0	59918	25875	93	
4670	0	59919	25876	93	
4671	0	59933	25876	93	
4672	0	59923	25879	93	
4673	0	59909	25876	93	
4674	0	59885	25865	93	
4675	0	59864	25846	93	
4676	0	59823	25828	93	
4677	0	59786	25800	93	
4678	0	59742	25780	93	
4679	0	59696	25746	93	
4680	0	59662	25722	93	
4681	0	59630	25701	93	
4682	0	59595	25685	93	
4683	0	59581	25668	93	
4684	0	59567	25655	93	
4685	0	59560	25654	93	
4686	0	59542	25648	93	
4687	0	59537	25642	93	
4688	0	59549	25641	93	
4689	0	59551	25638	93	
4690	0	59545	25641	93	
4691	0	59551	25639	93	
4692	0	59556	25641	93	
4693	0	59547	25634	93	
4694	0	59552	25638	93	
4695	0	59546	25638	93	
4696	0	59544	25640	93	
4697	0	59557	25641	93	
4698	0	59562	25646	93	
4699	0	59565	25646	93	
4700	0	59569	25648	93	
4701	0	59566	25656	93	
4702	0	59573	25655	93	
4703	0	59574	25654	93	
4704	0	59577	25658	93	
4705	0	59588	25657	93	
4706	0	59588	25664	93	
4707	0	59577	25663	93	
4708	0	59578	25669	93	
4709	0	59579	25664	93	
4710	0	59583	25670	93	
4711	0	59590	25664	93	
4712	0	59586	25667	93	
4713	0	59594	25668	93	
4714	0	59594	25673	93	
4715	0	59595	25672	93	
4716	0	59604	25680	93	
4717	0	59600	25680	93	
4718	0	59617	25692	93	
4719	0	59620	25694	93	
4720	0	59635	25698	93	
4721	0	59637	25703	93	
4722	0	59654	25709	93	
4723	0	59653	25716	93	
4724	0	59668	25722	93	
4725	0	59675	25733	93	
4726	0	59695	25731	93	
4727	0	59704	25736	93	
4728	0	59704	25748	93	
4729	0	59724	25751	93	
4730	0	59730	25764	93	
4731	0	59745	25765	93	
4732	0	59747	25773	93	
4733	0	59761	25783	93	
4734	0	59762	25786	93	
4735	0	59778	25792	93	
4736	0	59780	25801	93	
4737	0	59794	25800	93	
4738	0	59794	25806	93	
4739	0	59807	25815	93	
4740	0	59818	25817	93	
4741	0	59821	25824	93	
4742	0	59824	25829	93	
4743	0	59834	25835	93	
4744	0	59838	25840	93	
4745	0	59858	25843	93	
4746	0	59860	25847	93	
4747	0	59865	25855	93	
4748	0	59865	25861	93	
4749	0	59881	25866	93	
4750	0	59889	25868	93	
4751	0	59894	25871	93	
4752	0	59898	25875	93	
4753	0	59912	25878	93	
4754	0	59924	25886	93	
4755	0	59923	25889	93	
4756	0	59928	25893	93	
4757	0	59937	25902	93	
4758	0	59953	25910	93	
4759	0	59961	25917	93	
4760	0	59974	25920	93	
4761	0	59981	25927	93	
4762	0	59981	25933	93	
4763	0	59997	25937	93	
4764	0	60004	25944	93	
4765	0	60010	25945	93	
4766	0	59993	25942	93	
4767	0	59981	25933	93	
4768	0	59962	25920	93	
4769	0	59917	25902	93	
4770	0	59871	25883	93	
4771	0	59836	25856	93	
4772	0	59794	25824	93	
4773	0	59752	25794	93	
4774	0	59710	25772	93	
4775	0	59678	25751	93	
4776	0	59646	25733	93	
4777	0	59627	25718	93	
4778	0	59617	25707	93	
4779	0	59615	25695	93	
4780	0	59606	25695	93	
4781	0	59599	25690	93	
4782	0	59608	25694	93	
4783	0	59598	25690	93	
4784	0	59605	25691	93	
4785	0	59607	25690	93	
4786	0	59607	25692	93	
4787	0	59599	25682	93	
4788	0	59600	25683	93	
4789	0	59598	25685	93	
4790	0	59600	25685	93	
4791	0	59600	25683	93	
4792	0	59598	25683	93	
4793	0	59608	25691	93	
4794	0	59612	25690	93	
4795	0	59609	25688	93	
4796	0	59621	25693	93	
4797	0	59619	25692	93	
4798	0	59618	25699	93	
4799	0	59616	25693	93	
4800	0	59616	25699	93	
4801	0	59627	25696	93	
4802	0	59625	25703	93	
4803	0	59618	25699	93	
4804	0	59622	25700	93	
4805	0	59618	25702	93	
4806	0	59621	25706	93	
4807	0	59628	25705	93	
4808	0	59628	25707	93	
4809	0	59629	25706	93	
4810	0	59638	25713	93	
4811	0	59640	25715	93	
4812	0	59645	25719	93	
4813	0	59656	25720	93	
4814	0	59665	25725	93	
4815	0	59668	25731	93	
4816	0	59678	25737	93	
4817	0	59683	25744	93	
4818	0	59701	25748	93	
4819	0	59710	25757	93	
4820	0	59713	25761	93	
4821	0	59720	25768	93	
4822	0	59732	25775	93	
4823	0	59745	25778	93	
4824	0	59751	25782	93	
4825	0	59754	25791	93	
4826	0	59775	25795	93	
4827	0	59782	25801	93	
4828	0	59783	25809	93	
4829	0	59787	25811	93	
4830	0	59800	25821	93	
4831	0	59811	25823	93	
4832	0	59810	25828	93	
4833	0	59817	25832	93	
4834	0	59827	25834	93	
4835	0	59827	25835	93	
4836	0	59837	25843	93	
4837	0	59845	25844	93	
4838	0	59859	25852	93	
4839	0	59852	25861	93	
4840	0	59864	25862	93	
4841	0	59876	25869	93	
4842	0	59873	25874	93	
4843	0	59885	25876	93	
4844	0	59892	25881	93	
4845	0	59901	25885	93	
4846	0	59904	25891	93	
4847	0	59913	25894	93	
4848	0	59923	25905	93	
4849	0	59923	25905	93	
4850	0	59938	25911	93	
4851	0	59939	25918	93	
4852	0	59956	25924	93	
4853	0	59957	25929	93	
4854	0	59964	25931	93	
4855	0	59981	25933	93	
4856	0	59979	25941	93	
4857	0	59998	25948	93	
4858	0	60008	25958	93	
4859	0	60010	25963	93	
4860	0	60016	25968	93	
4861	0	60032	25975	93	
4862	0	60032	25978	93	
4863	0	60044	25978	93	
4864	0	60058	25987	93	
4865	0	60053	25990	93	
4866	0	60069	25995	93	
4867	0	60072	26003	93	
4868	0	60085	26001	93	
4869	0	60087	26012	93	
4870	0	60096	26013	93	
4871	0	60097	26019	93	
4872	0	60091	26016	93	
4873	0	60070	26008	93	
4874	0	60047	25995	93	
4875	0	60007	25981	93	
4876	0	59964	25951	93	
4877	0	59924	25931	93	
4878	0	59884	25902	93	
4879	0	59847	25878	93	
4880	0	59804	25851	93	
4881	0	59770	25834	93	
4882	0	59750	25813	93	
4883	0	59726	25803	93	
4884	0	59716	25792	93	
4885	0	59708	25785	93	
4886	0	59700	25782	93	
4887	0	59707	25780	93	
4888	0	59699	25778	93	
4889	0	59712	25778	93	
4890	0	59708	25778	93	
4891	0	59705	25779	93	
4892	0	59716	25777	93	
4893	0	59703	25779	93	
4894	0	59710	25775	93	
4895	0	59708	25777	93	
4896	0	59709	25779	93	
4897	0	59704	25780	93	
4898	0	59709	25778	93	
4899	0	59706	25782	93	
4900	0	59711	25779	93	
4901	0	59713	25781	93	
4902	0	59712	25784	93	
4903	0	59716	25785	93	
4904	0	59718	25780	93	
4905	0	59707	25777	93	
4906	0	59707	25779	93	
4907	0	59712	25778	93	
4908	0	59707	25777	93	
4909	0	59697	25780	93	
4910	0	59708	25774	93	
4911	0	59702	25778	93	
4912	0	59708	25779	93	
4913	0	59706	25775	93	
4914	0	59703	25779	93	
4915	0	59710	25783	93	
4916	0	59710	25779	93	
4917	0	59714	25785	93	
4918	0	59723	25788	93	
4919	0	59728	25794	93	
4920	0	59734	25795	93	
4921	0	59737	25803	93	
4922	0	59747	25804	93	
4923	0	59760	25811	93	
4924	0	59763	25813	93	
4925	0	59768	25819	93	
4926	0	59780	25826	93	
4927	0	59785	25825	93	
4928	0	59786	25828	93	
4929	0	59802	25837	93	
4930	0	59814	25840	93	
4931	0	59810	25845	93	
4932	0	59821	25854	93	
4933	0	59828	25854	93	
4934	0	59830	25858	93	
4935	0	59839	25868	93	
4936	0	59841	25871	93	
4937	0	59851	25874	93	
4938	0	59861	25878	93	
4939	0	59868	25878	93	
4940	0	59865	25882	93	
4941	0	59875	25882	93	
4942	0	59879	25892	93	
4943	0	59886	25899	93	
4944	0	59885	25901	93	
4945	0	59899	25907	93	
4946	0	59905	25902	93	
4947	0	59905	25910	93	
4948	0	59912	25915	93	
4949	0	59917	25919	93	
4950	0	59929	25920	93	
4951	0	59935	25928	93	
4952	0	59933	25928	93	
4953	0	59942	25934	93	
4954	0	59948	25938	93	
4955	0	59952	25940	93	
4956	0	59961	25947	93	
4957	0	59971	25950	93	
4958	0	59973	25958	93	
4959	0	59981	25963	93	
4960	0	59987	25964	93	
4961	0	59997	25975	93	
4962	0	60004	25973	93	
4963	0	60007	25981	93	
4964	0	60019	25988	93	
4965	0	60028	25992	93	
4966	0	60035	25996	93	
4967	0	60039	25996	93	
4968	0	60046	26000	93	
4969	0	60057	26012	93	
4970	0	60074	26011	93	
4971	0	60072	26020	93	
4972	0	60068	26020	93	
4973	0	60072	26020	93	
4974	0	60052	26005	93	
4975	0	60018	25996	93	
4976	0	59982	25975	93	
4977	0	59954	25958	93	
4978	0	59908	25932	93	
4979	0	59872	25911	93	
4980	0	59834	25887	93	
4981	0	59790	25862	93	
4982	0	59760	25840	93	
4983	0	59735	25829	93	
4984	0	59719	25813	93	
4985	0	59705	25806	93	
4986	0	59705	25802	93	
4987	0	59709	25792	93	
4988	0	59697	25788	93	
4989	0	59695	25791	93	
4990	0	59703	25793	93	
4991	0	59702	25789	93	
4992	0	59710	25792	93	
4993	0	59703	25790	93	
4994	0	59702	25790	93	
4995	0	59702	25791	93	
4996	0	59704	25792	93	
4997	0	59704	25791	93	
4998	0	59701	25792	93	
4999	0	59707	25794	93	
5000	0	59712	25796	93	
5001	0	59706	25800	93	
5002	0	59718	25802	93	
5003	0	59713	25796	93	
5004	0	59711	25797	93	
5005	0	59704	25798	93	
5006	0	59706	25800	93	
5007	0	59713	25797	93	
5008	0	59703	25799	93	
5009	0	59696	25798	93	
5010	0	59701	25797	93	
5011	0	59693	25794	93	
5012	0	59698	25795	93	
5013	0	59700	25797	93	
5014	0	59701	25794	93	
5015	0	59698	25794	93	
5016	0	59703	25799	93	
5017	0	59713	25803	93	
5018	0	59711	25805	93	
5019	0	59719	25808	93	
5020	0	59722	25811	93	
5021	0	59724	25816	93	
5022	0	59738	25820	93	
5023	0	59744	25826	93	
5024	0	59751	25826	93	
5025	0	59758	25833	93	
5026	0	59765	25837	93	
5027	0	59771	25842	93	
5028	0	59780	25848	93	
5029	0	59795	25847	93	
5030	0	59793	25860	93	
5031	0	59799	25861	93	
5032	0	59814	25863	93	
5033	0	59824	25873	93	
5034	0	59834	25877	93	
5035	0	59832	25883	93	
5036	0	59840	25882	93	
5037	0	59843	25887	93	
5038	0	59865	25895	93	
5039	0	59855	25893	93	
5040	0	59866	25898	93	
5041	0	59873	25899	93	
5042	0	59882	25899	93	
5043	0	59875	25905	93	
5044	0	59889	25910	93	
5045	0	59892	25915	93	
5046	0	59899	25922	93	
5047	0	59894	25924	93	
5048	0	59902	25928	93	
5049	0	59909	25933	93	
5050	0	59920	25933	93	
5051	0	59925	25939	93	
5052	0	59937	25943	93	
5053	0	59945	25941	93	
5054	0	59947	25949	93	
5055	0	59952	25957	93	
5056	0	59963	25963	93	
5057	0	59964	25964	93	
5058	0	59970	25974	93	
5059	0	59977	25977	93	
5060	0	59993	25981	93	
5061	0	60001	25987	93	
5062	0	60012	25988	93	
5063	0	60016	25995	93	
5064	0	60025	25997	93	
5065	0	60021	26002	93	
5066	0	60033	26008	93	
5067	0	60036	26010	93	
5068	0	60051	26016	93	
5069	0	60053	26024	93	
5070	0	60059	26028	93	
5071	0	60069	26030	93	
5072	0	60080	26040	93	
5073	0	60084	26045	93	
5074	0	60097	26048	93	
5075	0	60095	26051	93	
5076	0	60098	26048	93	
5077	0	60077	26042	93	
5078	0	60053	26034	93	
5079	0	60023	26017	93	
5080	0	59988	26000	93	
5081	0	59949	25975	93	
5082	0	59905	25950	93	
5083	0	59854	25926	93	
5084	0	59824	25899	93	
5085	0	59785	25878	92	
5086	0	59759	25853	92	
5087	0	59727	25837	92	
5088	0	59704	25828	92	
5089	0	59699	25816	92	
5090	0	59692	25811	92	
5091	0	59694	25806	92	
5092	0	59690	25797	92	
5093	0	59681	25800	92	
5094	0	59685	25801	92	
5095	0	59685	25799	92	
5096	0	59688	25801	92	
5097	0	59690	25801	92	
5098	0	59694	25798	92	
5099	0	59682	25800	92	
5100	0	59678	25800	92	
5101	0	59684	25799	92	
5102	0	59682	25796	92	
5103	0	59685	25795	92	
5104	0	59686	25797	92	
5105	0	59680	25795	92	
5106	0	59688	25794	92	
5107	0	59680	25795	92	
5108	0	59682	25797	92	
5109	0	59682	25794	92	
5110	0	59682	25796	92	
5111	0	59674	25793	92	
5112	0	59677	25794	92	
5113	0	59677	25790	92	
5114	0	59673	25789	92	
5115	0	59670	25786	92	
5116	0	59670	25788	92	
5117	0	59673	25793	92	
5118	0	59671	25792	92	
5119	0	59665	25792	92	
5120	0	59669	25786	92	
5121	0	59679	25792	92	
5122	0	59678	25797	92	
5123	0	59687	25800	92	
5124	0	59685	25804	92	
5125	0	59699	25811	92	
5126	0	59703	25815	92	
5127	0	59713	25816	92	
5128	0	59713	25820	92	
5129	0	59727	25827	92	
5130	0	59736	25834	92	
5131	0	59743	25838	92	
5132	0	59748	25840	92	
5133	0	59756	25844	92	
5134	0	59773	25847	92	
5135	0	59776	25852	92	
5136	0	59785	25857	92	
5137	0	59787	25868	92	
5138	0	59802	25868	92	
5139	0	59805	25873	92	
5140	0	59815	25878	92	
5141	0	59813	25879	92	
5142	0	59828	25883	92	
5143	0	59825	25883	92	
5144	0	59835	25892	92	
5145	0	59834	25893	92	
5146	0	59845	25904	92	
5147	0	59842	25898	92	
5148	0	59850	25908	92	
5149	0	59860	25910	92	
5150	0	59861	25908	92	
5151	0	59876	25915	92	
5152	0	59872	25920	92	
5153	0	59879	25922	92	
5154	0	59887	25927	92	
5155	0	59892	25930	92	
5156	0	59906	25929	92	
5157	0	59900	25937	92	
5158	0	59909	25940	92	
5159	0	59918	25948	92	
5160	0	59923	25951	92	
5161	0	59937	25954	92	
5162	0	59945	25954	92	
5163	0	59945	25962	92	
5164	0	59954	25966	92	
5165	0	59959	25967	92	
5166	0	59967	25975	92	
5167	0	59977	25983	92	
5168	0	59981	25987	92	
5169	0	59983	25984	92	
5170	0	59999	25992	92	
5171	0	60007	25994	92	
5172	0	60008	26002	92	
5173	0	60022	26012	92	
5174	0	60026	26013	92	
5175	0	60029	26020	92	
5176	0	60041	26019	92	
5177	0	60052	26025	92	
5178	0	60053	26029	92	
5179	0	60061	26032	92	
5180	0	60049	26032	92	
5181	0	60031	26026	92	
5182	0	60008	26011	92	
5183	0	59980	25993	92	
5184	0	59931	25972	92	
5185	0	59891	25947	92	
5186	0	59854	25926	92	
5187	0	59803	25895	92	
5188	0	59774	25869	92	
5189	0	59734	25850	92	
5190	0	59706	25828	92	
5191	0	59689	25811	92	
5192	0	59676	25802	92	
5193	0	59669	25794	92	
5194	0	59657	25785	92	
5195	0	59665	25779	92	
5196	0	59665	25775	92	
5197	0	59658	25777	92	
5198	0	59668	25779	92	
5199	0	59664	25774	92	
5200	0	59661	25772	92	
5201	0	59677	25775	92	
5202	0	59677	25782	92	
5203	0	59682	25775	92	
5204	0	59676	25779	92	
5205	0	59684	25777	92	
5206	0	59684	25781	92	
5207	0	59683	25783	92	
5208	0	59690	25789	92	
5209	0	59688	25783	92	
5210	0	59694	25785	92	
5211	0	59684	25786	92	
5212	0	59688	25781	92	
5213	0	59680	25778	92	
5214	0	59676	25781	92	
5215	0	59675	25777	92	
5216	0	59671	25776	92	
5217	0	59672	25776	92	
5218	0	59662	25772	92	
5219	0	59667	25771	92	
5220	0	59663	25771	92	
5221	0	59665	25767	92	
5222	0	59662	25766	92	
5223	0	59666	25766	92	
5224	0	59667	25770	92	
5225	0	59675	25774	92	
5226	0	59681	25776	92	
5227	0	59680	25775	92	
5228	0	59685	25785	92	
5229	0	59706	25783	92	
5230	0	59706	25788	92	
5231	0	59717	25793	92	
5232	0	59723	25799	92	
