# OpenSignals Text File Format. Version 1
# {"84:2E:14:0C:D8:EF": {"position": 0, "device": "biosignalsplux", "device name": "84:2E:14:0C:D8:EF", "device connection": "BTH84:2E:14:0C:D8:EF", "sampling rate": 100, "resolution": [16, 16], "firmware version": 779, "comments": "", "keywords": "", "mode": 0, "sync interval": 2, "date": "2026-4-23", "time": "16:1:23.995", "channels": [9, 10, 11], "sensor": ["fSpO2", "fSpO2", "%SpO2"], "label": ["CH9A", "CH9B", "%SpO2"], "column": ["nSeq", "DI", "CH9A", "CH9B", "%SpO2"], "special": [{"SpO2": [80, 40, 5, 4, 4, 4]}, {"SpO2": [80, 40, 5, 4, 4, 4]}, {"SpO2": [80, 40, 5, 4, 4, 4]}, {"SpO2": [80, 40, 5, 4, 4, 4]}, {"SpO2": [80, 40, 5, 4, 4, 4]}, {"SpO2": [80, 40, 5, 4, 4, 4]}, {"SpO2": [80, 40, 5, 4, 4, 4]}, {"SpO2": [80, 40, 5, 4, 4, 4]}, {"SpO2": [80, 40, 5, 4, 4, 4]}, {"SpO2": [80, 40, 5, 4, 4, 4]}], "digital IO": [0, 1], "virtual channels": "{'channels': [11], 'calculationChannels': [[9, 10]]}", "sleeve color": ["yellow", "yellow", "dark_blue"]}}
# EndOfHeader
0	0	44327	18328	0	
1	0	44312	18328	0	
2	0	44295	18341	0	
3	0	44305	18356	0	
4	0	44315	18376	0	
5	0	44342	18393	0	
6	0	44352	18414	0	
7	0	44367	18422	0	
8	0	44386	18440	0	
9	0	44407	18457	0	
10	0	44423	18464	0	
11	0	44443	18477	0	
12	0	44461	18487	0	
13	0	44468	18496	0	
14	0	44481	18496	0	
15	0	44485	18498	0	
16	0	44498	18508	0	
17	0	44501	18505	0	
18	0	44512	18510	0	
19	0	44510	18514	0	
20	0	44519	18518	0	
21	0	44530	18524	0	
22	0	44539	18527	0	
23	0	44545	18534	0	
24	0	44543	18538	0	
25	0	44549	18542	0	
26	0	44561	18546	0	
27	0	44564	18550	0	
28	0	44568	18554	0	
29	0	44579	18554	0	
30	0	44573	18556	0	
31	0	44584	18561	0	
32	0	44592	18574	0	
33	0	44607	18570	0	
34	0	44614	18579	0	
35	0	44616	18579	0	
36	0	44618	18582	0	
37	0	44616	18583	0	
38	0	44628	18584	0	
39	0	44631	18587	0	
40	0	44637	18588	0	
41	0	44644	18585	0	
42	0	44652	18584	0	
43	0	44645	18583	0	
44	0	44651	18583	0	
45	0	44646	18583	0	
46	0	44642	18584	0	
47	0	44649	18585	0	
48	0	44638	18589	0	
49	0	44647	18590	0	
50	0	44651	18593	0	
51	0	44646	18591	0	
52	0	44634	18586	0	
53	0	44624	18574	0	
54	0	44595	18561	0	
55	0	44577	18547	0	
56	0	44556	18535	0	
57	0	44540	18515	0	
58	0	44518	18501	0	
59	0	44500	18495	0	
60	0	44491	18484	0	
61	0	44487	18474	0	
62	0	44488	18473	0	
63	0	44491	18470	0	
64	0	44495	18474	0	
65	0	44498	18469	0	
66	0	44507	18472	0	
67	0	44513	18470	0	
68	0	44516	18468	0	
69	0	44520	18470	0	
70	0	44523	18473	0	
71	0	44534	18477	0	
72	0	44541	18474	0	
73	0	44539	18474	0	
74	0	44540	18473	0	
75	0	44546	18473	0	
76	0	44544	18473	0	
77	0	44545	18470	0	
78	0	44545	18469	0	
79	0	44543	18467	0	
80	0	44526	18458	0	
81	0	44522	18449	0	
82	0	44520	18456	0	
83	0	44516	18455	0	
84	0	44521	18449	0	
85	0	44521	18450	0	
86	0	44521	18451	0	
87	0	44523	18448	0	
88	0	44529	18446	0	
89	0	44535	18443	0	
90	0	44542	18446	0	
91	0	44535	18441	0	
92	0	44544	18440	0	
93	0	44543	18442	0	
94	0	44543	18438	0	
95	0	44543	18441	0	
96	0	44553	18443	0	
97	0	44553	18442	0	
98	0	44557	18438	0	
99	0	44551	18434	0	
100	0	44548	18430	0	
101	0	44547	18432	0	
102	0	44548	18436	0	
103	0	44557	18436	0	
104	0	44556	18434	0	
105	0	44555	18432	0	
106	0	44559	18432	0	
107	0	44553	18437	0	
108	0	44554	18436	0	
109	0	44555	18434	0	
110	0	44561	18437	0	
111	0	44567	18433	0	
112	0	44562	18432	0	
113	0	44552	18431	0	
114	0	44559	18431	0	
115	0	44559	18433	0	
116	0	44559	18437	0	
117	0	44549	18436	0	
118	0	44540	18433	0	
119	0	44530	18431	0	
120	0	44519	18426	0	
121	0	44506	18414	0	
122	0	44489	18405	0	
123	0	44472	18390	0	
124	0	44447	18382	0	
125	0	44446	18371	0	
126	0	44435	18367	0	
127	0	44429	18362	0	
128	0	44424	18359	0	
129	0	44422	18361	0	
130	0	44426	18361	0	
131	0	44434	18363	0	
132	0	44441	18368	0	
133	0	44445	18366	0	
134	0	44451	18376	0	
135	0	44464	18381	0	
136	0	44468	18382	0	
137	0	44472	18390	0	
138	0	44485	18390	0	
139	0	44495	18398	0	
140	0	44501	18401	0	
141	0	44500	18402	0	
142	0	44509	18404	0	
143	0	44509	18407	0	
144	0	44503	18406	0	
145	0	44504	18408	0	
146	0	44499	18406	0	
147	0	44495	18409	0	
148	0	44496	18408	0	
149	0	44488	18409	0	
150	0	44492	18413	0	
151	0	44504	18409	0	
152	0	44503	18412	0	
153	0	44508	18414	0	
154	0	44498	18414	0	
155	0	44503	18414	0	
156	0	44510	18420	0	
157	0	44517	18420	0	
158	0	44524	18422	0	
159	0	44528	18422	0	
160	0	44529	18427	0	
161	0	44536	18430	0	
162	0	44546	18429	0	
163	0	44550	18434	0	
164	0	44547	18433	0	
165	0	44554	18436	0	
166	0	44555	18434	0	
167	0	44557	18437	0	
168	0	44555	18433	0	
169	0	44554	18440	0	
170	0	44566	18442	0	
171	0	44577	18445	0	
172	0	44584	18448	0	
173	0	44562	18445	0	
174	0	44563	18454	0	
175	0	44561	18450	0	
176	0	44570	18462	0	
177	0	44576	18462	0	
178	0	44577	18467	0	
179	0	44591	18471	0	
180	0	44597	18478	0	
181	0	44601	18476	0	
182	0	44611	18478	0	
183	0	44606	18478	0	
184	0	44611	18475	0	
185	0	44592	18467	0	
186	0	44575	18455	0	
187	0	44553	18442	0	
188	0	44525	18425	0	
189	0	44497	18410	0	
190	0	44463	18395	0	
191	0	44435	18376	0	
192	0	44418	18370	0	
193	0	44401	18361	0	
194	0	44390	18361	0	
195	0	44382	18362	0	
196	0	44381	18363	0	
197	0	44378	18369	0	
198	0	44383	18374	0	
199	0	44405	18388	0	
200	0	44406	18393	0	
201	0	44415	18398	0	
202	0	44415	18409	0	
203	0	44426	18420	0	
204	0	44436	18431	0	
205	0	44441	18438	0	
206	0	44457	18450	0	
207	0	44473	18460	0	
208	0	44487	18470	0	
209	0	44497	18475	0	
210	0	44508	18478	0	
211	0	44508	18481	0	
212	0	44511	18488	0	
213	0	44511	18487	0	
214	0	44522	18493	0	
215	0	44528	18492	0	
216	0	44533	18492	0	
217	0	44538	18493	0	
218	0	44537	18484	0	
219	0	44530	18489	0	
220	0	44535	18486	0	
221	0	44535	18490	0	
222	0	44531	18487	0	
223	0	44543	18494	0	
224	0	44558	18493	0	
225	0	44563	18498	0	
226	0	44574	18502	0	
227	0	44581	18502	0	
228	0	44585	18502	0	
229	0	44587	18499	0	
230	0	44593	18497	0	
231	0	44594	18497	0	
232	0	44590	18494	0	
233	0	44588	18492	0	
234	0	44591	18490	0	
235	0	44588	18492	0	
236	0	44584	18496	0	
237	0	44591	18495	0	
238	0	44586	18499	0	
239	0	44583	18501	0	
240	0	44574	18508	0	
241	0	44585	18510	0	
242	0	44602	18521	0	
243	0	44619	18533	0	
244	0	44648	18539	0	
245	0	44667	18544	0	
246	0	44673	18543	0	
247	0	44678	18539	0	
248	0	44667	18530	0	
249	0	44649	18523	0	
250	0	44621	18512	0	
251	0	44597	18499	0	
252	0	44575	18484	0	
253	0	44545	18470	0	
254	0	44515	18460	0	
255	0	44498	18451	0	
256	0	44477	18440	0	
257	0	44470	18428	0	
258	0	44461	18421	0	
259	0	44456	18413	0	
260	0	44455	18410	0	
261	0	44453	18407	0	
262	0	44447	18410	0	
263	0	44439	18408	0	
264	0	44439	18413	0	
265	0	44445	18420	0	
266	0	44448	18433	0	
267	0	44455	18443	0	
268	0	44466	18454	0	
269	0	44469	18462	0	
270	0	44475	18472	0	
271	0	44484	18487	0	
272	0	44483	18498	0	
273	0	44495	18509	0	
274	0	44510	18523	0	
275	0	44522	18542	0	
276	0	44532	18548	0	
277	0	44544	18556	0	
278	0	44554	18564	0	
279	0	44556	18572	0	
280	0	44553	18575	0	
281	0	44551	18581	0	
282	0	44555	18585	0	
283	0	44553	18590	0	
284	0	44564	18599	0	
285	0	44575	18607	92	
286	0	44584	18610	92	
287	0	44590	18617	92	
288	0	44598	18618	92	
289	0	44613	18630	92	
290	0	44612	18635	92	
291	0	44628	18642	92	
292	0	44633	18645	92	
293	0	44644	18652	92	
294	0	44647	18661	92	
295	0	44658	18669	92	
296	0	44676	18676	92	
297	0	44683	18676	92	
298	0	44688	18685	92	
299	0	44692	18689	92	
300	0	44692	18694	92	
301	0	44711	18696	92	
302	0	44714	18701	92	
303	0	44718	18704	92	
304	0	44719	18707	92	
305	0	44723	18715	92	
306	0	44736	18715	92	
307	0	44746	18720	92	
308	0	44750	18730	92	
309	0	44755	18730	92	
310	0	44761	18734	92	
311	0	44761	18739	92	
312	0	44770	18739	92	
313	0	44767	18742	92	
314	0	44778	18745	92	
315	0	44767	18740	92	
316	0	44754	18724	92	
317	0	44728	18707	92	
318	0	44704	18684	92	
319	0	44677	18665	92	
320	0	44643	18645	92	
321	0	44618	18623	92	
322	0	44600	18616	92	
323	0	44590	18604	92	
324	0	44583	18601	92	
325	0	44583	18587	92	
326	0	44579	18586	92	
327	0	44577	18586	92	
328	0	44575	18587	92	
329	0	44576	18590	92	
330	0	44589	18589	92	
331	0	44610	18599	92	
332	0	44619	18602	92	
333	0	44628	18599	92	
334	0	44629	18609	92	
335	0	44633	18612	92	
336	0	44639	18613	92	
337	0	44640	18614	92	
338	0	44638	18615	92	
339	0	44637	18621	92	
340	0	44642	18623	92	
341	0	44639	18623	92	
342	0	44628	18623	92	
343	0	44632	18624	92	
344	0	44637	18625	92	
345	0	44643	18629	92	
346	0	44650	18628	92	
347	0	44647	18625	92	
348	0	44647	18620	92	
349	0	44640	18617	92	
350	0	44638	18615	92	
351	0	44633	18616	92	
352	0	44635	18619	92	
353	0	44632	18620	92	
354	0	44637	18628	92	
355	0	44637	18633	92	
356	0	44640	18636	92	
357	0	44642	18644	92	
358	0	44656	18655	92	
359	0	44679	18666	92	
360	0	44685	18678	92	
361	0	44696	18680	92	
362	0	44700	18689	92	
363	0	44713	18693	92	
364	0	44734	18699	92	
365	0	44747	18703	92	
366	0	44750	18704	92	
367	0	44751	18702	92	
368	0	44762	18702	92	
369	0	44762	18703	92	
370	0	44759	18708	92	
371	0	44750	18705	92	
372	0	44756	18709	92	
373	0	44769	18710	92	
374	0	44764	18714	92	
375	0	44771	18714	92	
376	0	44766	18708	92	
377	0	44745	18703	92	
378	0	44728	18692	92	
379	0	44712	18677	92	
380	0	44694	18663	92	
381	0	44671	18647	92	
382	0	44644	18633	92	
383	0	44631	18615	92	
384	0	44624	18608	92	
385	0	44621	18599	92	
386	0	44619	18595	92	
387	0	44622	18591	92	
388	0	44617	18585	92	
389	0	44621	18583	92	
390	0	44624	18582	92	
391	0	44627	18584	92	
392	0	44629	18584	92	
393	0	44636	18590	92	
394	0	44638	18591	92	
395	0	44647	18593	92	
396	0	44656	18599	92	
397	0	44649	18601	92	
398	0	44657	18606	92	
399	0	44664	18607	92	
400	0	44663	18608	92	
401	0	44671	18611	92	
402	0	44673	18611	92	
403	0	44680	18605	92	
404	0	44671	18604	92	
405	0	44673	18597	92	
406	0	44667	18596	92	
407	0	44663	18592	92	
408	0	44669	18590	92	
409	0	44662	18585	92	
410	0	44656	18582	92	
411	0	44654	18579	92	
412	0	44658	18580	92	
413	0	44661	18579	92	
414	0	44657	18580	92	
415	0	44665	18578	92	
416	0	44657	18582	92	
417	0	44662	18583	92	
418	0	44654	18584	92	
419	0	44659	18586	92	
420	0	44660	18590	92	
421	0	44669	18594	92	
422	0	44667	18602	92	
423	0	44678	18608	92	
424	0	44684	18609	92	
425	0	44696	18617	92	
426	0	44697	18624	92	
427	0	44704	18626	92	
428	0	44715	18626	92	
429	0	44727	18629	92	
430	0	44731	18640	92	
431	0	44753	18639	92	
432	0	44762	18644	92	
433	0	44766	18640	92	
434	0	44768	18636	92	
435	0	44756	18635	92	
436	0	44753	18623	92	
437	0	44729	18616	92	
438	0	44710	18606	92	
439	0	44684	18587	92	
440	0	44661	18573	92	
441	0	44639	18559	92	
442	0	44615	18542	92	
443	0	44586	18526	92	
444	0	44568	18515	92	
445	0	44551	18500	92	
446	0	44540	18499	92	
447	0	44532	18496	92	
448	0	44538	18496	92	
449	0	44542	18499	92	
450	0	44542	18504	92	
451	0	44556	18510	92	
452	0	44555	18513	92	
453	0	44566	18519	92	
454	0	44573	18523	92	
455	0	44585	18529	92	
456	0	44581	18531	92	
457	0	44590	18535	92	
458	0	44598	18543	92	
459	0	44606	18550	92	
460	0	44614	18553	92	
461	0	44614	18553	92	
462	0	44620	18557	92	
463	0	44613	18556	92	
464	0	44617	18558	92	
465	0	44621	18554	92	
466	0	44617	18555	92	
467	0	44617	18556	92	
468	0	44614	18552	92	
469	0	44620	18551	92	
470	0	44617	18546	92	
471	0	44619	18549	92	
472	0	44624	18549	92	
473	0	44622	18552	92	
474	0	44634	18554	92	
475	0	44630	18552	92	
476	0	44641	18555	92	
477	0	44642	18558	92	
478	0	44647	18560	92	
479	0	44647	18558	92	
480	0	44649	18557	92	
481	0	44647	18560	92	
482	0	44641	18559	92	
483	0	44641	18562	92	
484	0	44652	18565	92	
485	0	44654	18567	92	
486	0	44665	18573	92	
487	0	44671	18575	92	
488	0	44667	18577	92	
489	0	44672	18577	92	
490	0	44677	18579	92	
491	0	44682	18582	92	
492	0	44679	18585	92	
493	0	44686	18590	92	
494	0	44690	18591	92	
495	0	44695	18589	92	
496	0	44694	18593	92	
497	0	44685	18590	92	
498	0	44685	18585	92	
499	0	44669	18582	92	
500	0	44663	18579	92	
501	0	44650	18567	92	
502	0	44632	18551	92	
503	0	44606	18538	92	
504	0	44577	18521	92	
505	0	44551	18506	92	
506	0	44532	18495	92	
507	0	44518	18484	92	
508	0	44521	18482	92	
509	0	44515	18480	92	
510	0	44520	18478	92	
511	0	44525	18480	92	
512	0	44525	18485	92	
513	0	44539	18481	92	
514	0	44543	18483	92	
515	0	44543	18486	92	
516	0	44543	18489	92	
517	0	44549	18493	92	
518	0	44561	18493	92	
519	0	44566	18498	92	
520	0	44569	18501	92	
521	0	44569	18505	92	
522	0	44576	18501	92	
523	0	44573	18502	92	
524	0	44563	18503	92	
525	0	44567	18500	92	
526	0	44568	18504	92	
527	0	44562	18503	92	
528	0	44555	18503	92	
529	0	44545	18506	92	
530	0	44554	18505	92	
531	0	44547	18509	92	
532	0	44554	18512	92	
533	0	44557	18514	92	
534	0	44566	18519	92	
535	0	44565	18519	92	
536	0	44576	18524	92	
537	0	44579	18537	92	
538	0	44587	18539	92	
539	0	44602	18545	92	
540	0	44604	18548	92	
541	0	44618	18555	92	
542	0	44625	18560	92	
543	0	44631	18559	92	
544	0	44634	18564	92	
545	0	44633	18567	92	
546	0	44643	18570	92	
547	0	44650	18572	92	
548	0	44666	18575	92	
549	0	44658	18574	92	
550	0	44667	18576	92	
551	0	44664	18574	92	
552	0	44659	18573	92	
553	0	44656	18574	92	
554	0	44665	18580	92	
555	0	44668	18583	92	
556	0	44674	18582	92	
557	0	44682	18590	92	
558	0	44682	18594	92	
559	0	44682	18590	92	
560	0	44687	18591	92	
561	0	44680	18590	92	
562	0	44674	18586	92	
563	0	44666	18587	92	
564	0	44660	18577	92	
565	0	44637	18567	92	
566	0	44618	18554	92	
567	0	44595	18544	92	
568	0	44575	18526	92	
569	0	44556	18513	92	
570	0	44546	18502	92	
571	0	44532	18486	92	
572	0	44521	18479	92	
573	0	44523	18473	92	
574	0	44518	18470	92	
575	0	44511	18461	92	
576	0	44509	18462	92	
577	0	44510	18460	92	
578	0	44509	18463	92	
579	0	44523	18469	92	
580	0	44531	18467	92	
581	0	44539	18472	92	
582	0	44543	18470	92	
583	0	44549	18473	92	
584	0	44547	18475	92	
585	0	44555	18479	96	
586	0	44552	18483	96	
587	0	44552	18480	96	
588	0	44554	18482	96	
589	0	44549	18477	96	
590	0	44555	18477	96	
591	0	44549	18474	96	
592	0	44537	18469	96	
593	0	44535	18469	96	
594	0	44541	18474	96	
595	0	44530	18469	96	
596	0	44535	18467	96	
597	0	44525	18473	96	
598	0	44530	18474	96	
599	0	44535	18473	96	
600	0	44538	18477	96	
601	0	44547	18483	96	
602	0	44547	18489	96	
603	0	44552	18490	96	
604	0	44555	18493	96	
605	0	44558	18495	96	
606	0	44566	18494	96	
607	0	44569	18498	96	
608	0	44571	18504	96	
609	0	44582	18507	96	
610	0	44578	18515	96	
611	0	44588	18517	96	
612	0	44603	18521	96	
613	0	44610	18518	96	
614	0	44603	18523	96	
615	0	44606	18525	96	
616	0	44600	18523	96	
617	0	44614	18530	96	
618	0	44613	18531	96	
619	0	44613	18531	96	
620	0	44612	18537	96	
621	0	44622	18539	96	
622	0	44622	18538	96	
623	0	44621	18544	96	
624	0	44630	18544	96	
625	0	44629	18543	96	
626	0	44634	18544	96	
627	0	44635	18546	96	
628	0	44631	18544	96	
629	0	44637	18542	96	
630	0	44626	18542	96	
631	0	44624	18545	96	
632	0	44617	18542	96	
633	0	44593	18536	96	
634	0	44587	18535	96	
635	0	44570	18522	96	
636	0	44551	18511	96	
637	0	44529	18496	96	
638	0	44515	18479	96	
639	0	44490	18467	96	
640	0	44475	18457	96	
641	0	44468	18449	96	
642	0	44466	18448	96	
643	0	44461	18450	96	
644	0	44473	18444	96	
645	0	44472	18448	96	
646	0	44478	18448	96	
647	0	44485	18456	96	
648	0	44487	18459	96	
649	0	44500	18465	96	
650	0	44513	18467	96	
651	0	44510	18469	96	
652	0	44519	18472	96	
653	0	44521	18474	96	
654	0	44523	18473	96	
655	0	44529	18479	96	
656	0	44531	18478	96	
657	0	44530	18480	96	
658	0	44528	18477	96	
659	0	44521	18473	96	
660	0	44520	18473	96	
661	0	44522	18468	96	
662	0	44518	18469	96	
663	0	44524	18467	96	
664	0	44521	18468	96	
665	0	44517	18466	96	
666	0	44524	18463	96	
667	0	44518	18464	96	
668	0	44520	18465	96	
669	0	44521	18464	96	
670	0	44526	18464	96	
671	0	44524	18469	96	
672	0	44537	18472	96	
673	0	44539	18469	96	
674	0	44547	18474	96	
675	0	44547	18480	96	
676	0	44555	18480	96	
677	0	44557	18483	96	
678	0	44553	18482	96	
679	0	44554	18481	96	
680	0	44556	18486	96	
681	0	44551	18489	96	
682	0	44558	18493	96	
683	0	44560	18496	96	
684	0	44562	18503	96	
685	0	44566	18506	96	
686	0	44579	18510	96	
687	0	44581	18514	96	
688	0	44591	18521	96	
689	0	44591	18522	96	
690	0	44597	18522	96	
691	0	44592	18523	96	
692	0	44589	18525	96	
693	0	44598	18530	96	
694	0	44606	18535	96	
695	0	44612	18537	96	
696	0	44613	18542	96	
697	0	44623	18544	96	
698	0	44615	18545	96	
699	0	44621	18548	96	
700	0	44614	18550	96	
701	0	44605	18548	96	
702	0	44600	18544	96	
703	0	44596	18539	96	
704	0	44578	18524	96	
705	0	44562	18513	96	
706	0	44540	18498	96	
707	0	44529	18482	96	
708	0	44501	18465	96	
709	0	44487	18448	96	
710	0	44475	18440	96	
711	0	44473	18434	96	
712	0	44465	18426	96	
713	0	44464	18421	96	
714	0	44454	18416	96	
715	0	44453	18417	96	
716	0	44454	18416	96	
717	0	44460	18422	96	
718	0	44462	18422	96	
719	0	44463	18426	96	
720	0	44467	18426	96	
721	0	44476	18426	96	
722	0	44475	18433	96	
723	0	44482	18438	96	
724	0	44485	18437	96	
725	0	44482	18437	96	
726	0	44486	18441	96	
727	0	44485	18447	96	
728	0	44478	18441	96	
729	0	44480	18441	96	
730	0	44474	18440	96	
731	0	44475	18442	96	
732	0	44471	18443	96	
733	0	44473	18444	96	
734	0	44472	18448	96	
735	0	44472	18449	96	
736	0	44478	18454	96	
737	0	44484	18460	96	
738	0	44486	18472	96	
739	0	44497	18471	96	
740	0	44500	18482	96	
741	0	44513	18489	96	
742	0	44531	18496	96	
743	0	44532	18499	96	
744	0	44539	18506	96	
745	0	44549	18510	96	
746	0	44553	18516	96	
747	0	44558	18520	96	
748	0	44556	18527	96	
749	0	44559	18532	96	
750	0	44566	18540	96	
751	0	44565	18546	96	
752	0	44579	18556	96	
753	0	44582	18563	96	
754	0	44599	18571	96	
755	0	44608	18574	96	
756	0	44624	18585	96	
757	0	44639	18587	96	
758	0	44650	18589	96	
759	0	44646	18596	96	
760	0	44646	18590	96	
761	0	44644	18587	96	
762	0	44639	18590	96	
763	0	44637	18590	96	
764	0	44655	18591	96	
765	0	44655	18596	96	
766	0	44656	18592	96	
767	0	44663	18592	96	
768	0	44671	18590	96	
769	0	44680	18595	96	
770	0	44682	18595	96	
771	0	44667	18585	96	
772	0	44665	18587	96	
773	0	44650	18587	96	
774	0	44647	18585	96	
775	0	44644	18587	96	
776	0	44646	18582	96	
777	0	44643	18572	96	
778	0	44643	18560	96	
779	0	44638	18539	96	
780	0	44607	18515	96	
781	0	44575	18484	96	
782	0	44536	18454	96	
783	0	44500	18432	96	
784	0	44466	18417	96	
785	0	44444	18402	96	
786	0	44439	18397	96	
787	0	44437	18397	96	
788	0	44434	18393	96	
789	0	44437	18397	96	
790	0	44445	18393	96	
791	0	44448	18390	96	
792	0	44448	18390	96	
793	0	44451	18390	96	
794	0	44445	18384	96	
795	0	44449	18385	96	
796	0	44448	18387	96	
797	0	44450	18386	96	
798	0	44455	18387	96	
799	0	44455	18387	96	
800	0	44451	18386	96	
801	0	44460	18385	96	
802	0	44457	18386	96	
803	0	44450	18385	96	
804	0	44451	18383	96	
805	0	44449	18383	96	
806	0	44441	18378	96	
807	0	44441	18376	96	
808	0	44442	18380	96	
809	0	44451	18379	96	
810	0	44455	18379	96	
811	0	44460	18375	96	
812	0	44458	18371	96	
813	0	44468	18375	96	
814	0	44474	18378	96	
815	0	44474	18379	96	
816	0	44480	18378	96	
817	0	44483	18379	96	
818	0	44475	18379	96	
819	0	44472	18383	96	
820	0	44483	18384	96	
821	0	44486	18386	96	
822	0	44485	18387	96	
823	0	44487	18390	96	
824	0	44490	18392	96	
825	0	44491	18402	96	
826	0	44495	18406	96	
827	0	44499	18402	96	
828	0	44501	18405	96	
829	0	44510	18414	96	
830	0	44517	18418	96	
831	0	44517	18415	96	
832	0	44513	18419	96	
833	0	44517	18421	96	
834	0	44523	18422	96	
835	0	44517	18424	96	
836	0	44531	18432	96	
837	0	44531	18428	96	
838	0	44538	18428	96	
839	0	44549	18439	96	
840	0	44548	18437	96	
841	0	44545	18441	96	
842	0	44554	18439	96	
843	0	44550	18439	96	
844	0	44556	18441	96	
845	0	44568	18445	96	
846	0	44579	18454	96	
847	0	44571	18454	96	
848	0	44579	18453	96	
849	0	44578	18451	96	
850	0	44576	18452	96	
851	0	44569	18451	96	
852	0	44556	18450	96	
853	0	44542	18445	96	
854	0	44526	18435	96	
855	0	44510	18421	96	
856	0	44483	18406	96	
857	0	44477	18394	96	
858	0	44448	18374	96	
859	0	44430	18359	96	
860	0	44417	18346	96	
861	0	44400	18337	96	
862	0	44390	18337	96	
863	0	44390	18333	96	
864	0	44389	18333	96	
865	0	44396	18331	96	
866	0	44389	18335	96	
867	0	44383	18334	96	
868	0	44398	18341	96	
869	0	44398	18348	96	
870	0	44408	18353	96	
871	0	44423	18353	96	
872	0	44434	18352	96	
873	0	44436	18357	96	
874	0	44437	18357	96	
875	0	44445	18358	96	
876	0	44440	18360	96	
877	0	44448	18358	96	
878	0	44448	18361	96	
879	0	44449	18361	96	
880	0	44454	18365	96	
881	0	44453	18359	96	
882	0	44448	18357	96	
883	0	44447	18355	96	
884	0	44444	18356	96	
885	0	44439	18354	95	
886	0	44439	18353	95	
887	0	44437	18350	95	
888	0	44434	18355	95	
889	0	44443	18363	95	
890	0	44446	18360	95	
891	0	44466	18370	95	
892	0	44472	18375	95	
893	0	44474	18377	95	
894	0	44474	18377	95	
895	0	44476	18375	95	
896	0	44486	18379	95	
897	0	44491	18386	95	
898	0	44492	18389	95	
899	0	44494	18388	95	
900	0	44501	18388	95	
901	0	44499	18390	95	
902	0	44497	18393	95	
903	0	44496	18394	95	
904	0	44498	18395	95	
905	0	44497	18401	95	
906	0	44501	18403	95	
907	0	44503	18404	95	
908	0	44504	18407	95	
909	0	44506	18412	95	
910	0	44509	18417	95	
911	0	44509	18416	95	
912	0	44513	18419	95	
913	0	44509	18424	95	
914	0	44519	18424	95	
915	0	44509	18422	95	
916	0	44515	18432	95	
917	0	44529	18433	95	
918	0	44529	18436	95	
919	0	44532	18437	95	
920	0	44533	18443	95	
921	0	44536	18449	95	
922	0	44547	18452	95	
923	0	44564	18458	95	
924	0	44559	18458	95	
925	0	44568	18460	95	
926	0	44563	18462	95	
927	0	44567	18466	95	
928	0	44575	18463	95	
929	0	44560	18464	95	
930	0	44551	18454	95	
931	0	44535	18446	95	
932	0	44507	18429	95	
933	0	44488	18415	95	
934	0	44463	18403	95	
935	0	44441	18384	95	
936	0	44421	18367	95	
937	0	44406	18356	95	
938	0	44390	18345	95	
939	0	44388	18340	95	
940	0	44382	18337	95	
941	0	44384	18337	95	
942	0	44382	18338	95	
943	0	44390	18340	95	
944	0	44390	18343	95	
945	0	44404	18345	95	
946	0	44410	18343	95	
947	0	44411	18345	95	
948	0	44417	18347	95	
949	0	44422	18348	95	
950	0	44436	18350	95	
951	0	44440	18349	95	
952	0	44433	18353	95	
953	0	44442	18351	95	
954	0	44440	18351	95	
955	0	44427	18351	95	
956	0	44429	18348	95	
957	0	44431	18345	95	
958	0	44434	18343	95	
959	0	44423	18338	95	
960	0	44422	18339	95	
961	0	44420	18334	95	
962	0	44421	18336	95	
963	0	44422	18328	95	
964	0	44422	18333	95	
965	0	44436	18329	95	
966	0	44435	18329	95	
967	0	44440	18329	95	
968	0	44436	18328	95	
969	0	44445	18330	95	
970	0	44442	18329	95	
971	0	44440	18330	95	
972	0	44438	18332	95	
973	0	44440	18333	95	
974	0	44444	18337	95	
975	0	44448	18339	95	
976	0	44453	18338	95	
977	0	44449	18341	95	
978	0	44458	18345	95	
979	0	44461	18348	95	
980	0	44467	18351	95	
981	0	44468	18355	95	
982	0	44462	18352	95	
983	0	44471	18355	95	
984	0	44467	18359	95	
985	0	44467	18360	95	
986	0	44471	18359	95	
987	0	44477	18363	95	
988	0	44486	18365	95	
989	0	44483	18361	95	
990	0	44489	18363	95	
991	0	44489	18368	95	
992	0	44487	18367	95	
993	0	44489	18365	95	
994	0	44496	18375	95	
995	0	44498	18377	95	
996	0	44502	18380	95	
997	0	44502	18380	95	
998	0	44501	18380	95	
999	0	44506	18383	95	
1000	0	44513	18385	95	
1001	0	44511	18392	95	
1002	0	44517	18389	95	
1003	0	44509	18388	95	
1004	0	44501	18386	95	
1005	0	44479	18377	95	
1006	0	44466	18365	95	
1007	0	44444	18353	95	
1008	0	44419	18336	95	
1009	0	44395	18324	95	
1010	0	44369	18306	95	
1011	0	44351	18296	95	
1012	0	44349	18285	95	
1013	0	44343	18280	95	
1014	0	44345	18276	95	
1015	0	44341	18277	95	
1016	0	44348	18276	95	
1017	0	44346	18279	95	
1018	0	44347	18279	95	
1019	0	44346	18282	95	
1020	0	44355	18286	95	
1021	0	44355	18286	95	
1022	0	44363	18287	95	
1023	0	44368	18293	95	
1024	0	44372	18294	95	
1025	0	44386	18297	95	
1026	0	44382	18300	95	
1027	0	44392	18300	95	
1028	0	44387	18304	95	
1029	0	44388	18309	95	
1030	0	44386	18301	95	
1031	0	44387	18301	95	
1032	0	44392	18300	95	
1033	0	44383	18302	95	
1034	0	44390	18298	95	
1035	0	44382	18301	95	
1036	0	44389	18301	95	
1037	0	44384	18304	95	
1038	0	44390	18300	95	
1039	0	44394	18304	95	
1040	0	44404	18303	95	
1041	0	44408	18310	95	
1042	0	44404	18311	95	
1043	0	44409	18315	95	
1044	0	44414	18316	95	
1045	0	44423	18322	95	
1046	0	44427	18324	95	
1047	0	44435	18329	95	
1048	0	44440	18333	95	
1049	0	44444	18335	95	
1050	0	44454	18337	95	
1051	0	44453	18340	95	
1052	0	44458	18338	95	
1053	0	44463	18340	95	
1054	0	44467	18349	95	
1055	0	44462	18347	95	
1056	0	44470	18354	95	
1057	0	44471	18357	95	
1058	0	44472	18356	95	
1059	0	44485	18362	95	
1060	0	44480	18362	95	
1061	0	44490	18363	95	
1062	0	44490	18366	95	
1063	0	44490	18367	95	
1064	0	44493	18366	95	
1065	0	44501	18363	95	
1066	0	44498	18365	95	
1067	0	44495	18366	95	
1068	0	44496	18368	95	
1069	0	44497	18369	95	
1070	0	44498	18370	95	
1071	0	44507	18374	95	
1072	0	44511	18375	95	
1073	0	44512	18379	95	
1074	0	44513	18382	95	
1075	0	44520	18387	95	
1076	0	44517	18389	95	
1077	0	44519	18388	95	
1078	0	44520	18383	95	
1079	0	44509	18378	95	
1080	0	44489	18367	95	
1081	0	44472	18355	95	
1082	0	44439	18335	95	
1083	0	44417	18321	95	
1084	0	44384	18305	95	
1085	0	44364	18283	95	
1086	0	44344	18273	95	
1087	0	44327	18265	95	
1088	0	44320	18260	95	
1089	0	44328	18256	95	
1090	0	44330	18255	95	
1091	0	44323	18257	95	
1092	0	44330	18261	95	
1093	0	44331	18260	95	
1094	0	44340	18261	95	
1095	0	44337	18262	95	
1096	0	44350	18264	95	
1097	0	44354	18268	95	
1098	0	44349	18267	95	
1099	0	44353	18272	95	
1100	0	44368	18272	95	
1101	0	44364	18276	95	
1102	0	44372	18277	95	
1103	0	44375	18277	95	
1104	0	44380	18277	95	
1105	0	44380	18276	95	
1106	0	44379	18274	95	
1107	0	44387	18274	95	
1108	0	44379	18276	95	
1109	0	44384	18276	95	
1110	0	44377	18275	95	
1111	0	44384	18271	95	
1112	0	44376	18271	95	
1113	0	44392	18272	95	
1114	0	44387	18276	95	
1115	0	44397	18274	95	
1116	0	44399	18269	95	
1117	0	44390	18271	95	
1118	0	44395	18275	95	
1119	0	44402	18280	95	
1120	0	44400	18276	95	
1121	0	44405	18282	95	
1122	0	44411	18286	95	
1123	0	44415	18289	95	
1124	0	44424	18294	95	
1125	0	44426	18297	95	
1126	0	44423	18299	95	
1127	0	44428	18305	95	
1128	0	44434	18307	95	
1129	0	44445	18307	95	
1130	0	44450	18314	95	
1131	0	44455	18316	95	
1132	0	44457	18320	95	
1133	0	44457	18322	95	
1134	0	44460	18324	95	
1135	0	44464	18324	95	
1136	0	44464	18322	95	
1137	0	44478	18330	95	
1138	0	44479	18330	95	
1139	0	44484	18329	95	
1140	0	44482	18333	95	
1141	0	44480	18333	95	
1142	0	44486	18333	95	
1143	0	44482	18336	95	
1144	0	44492	18338	95	
1145	0	44495	18344	95	
1146	0	44496	18345	95	
1147	0	44500	18347	95	
1148	0	44509	18349	95	
1149	0	44510	18352	95	
1150	0	44516	18355	95	
1151	0	44512	18363	95	
1152	0	44514	18358	95	
1153	0	44504	18355	95	
1154	0	44492	18349	95	
1155	0	44475	18338	95	
1156	0	44449	18324	95	
1157	0	44421	18308	95	
1158	0	44397	18293	95	
1159	0	44375	18277	95	
1160	0	44361	18266	95	
1161	0	44342	18256	95	
1162	0	44338	18253	95	
1163	0	44327	18251	95	
1164	0	44330	18251	95	
1165	0	44337	18251	95	
1166	0	44341	18253	95	
1167	0	44348	18258	95	
1168	0	44348	18263	95	
1169	0	44358	18266	95	
1170	0	44362	18269	95	
1171	0	44375	18274	95	
1172	0	44380	18274	95	
1173	0	44388	18280	95	
1174	0	44394	18284	95	
1175	0	44402	18290	95	
1176	0	44410	18293	95	
1177	0	44415	18294	95	
1178	0	44420	18288	95	
1179	0	44416	18294	95	
1180	0	44414	18289	95	
1181	0	44413	18292	95	
1182	0	44414	18291	95	
1183	0	44413	18287	95	
1184	0	44413	18288	95	
1185	0	44416	18291	94	
1186	0	44421	18290	94	
1187	0	44428	18288	94	
1188	0	44429	18286	94	
1189	0	44435	18293	94	
1190	0	44432	18293	94	
1191	0	44433	18294	94	
1192	0	44439	18298	94	
1193	0	44434	18298	94	
1194	0	44443	18301	94	
1195	0	44456	18306	94	
1196	0	44459	18308	94	
1197	0	44462	18312	94	
1198	0	44471	18317	94	
1199	0	44476	18323	94	
1200	0	44480	18324	94	
1201	0	44480	18326	94	
1202	0	44489	18330	94	
1203	0	44482	18329	94	
1204	0	44488	18336	94	
1205	0	44496	18337	94	
1206	0	44500	18343	94	
1207	0	44507	18344	94	
1208	0	44507	18349	94	
1209	0	44514	18349	94	
1210	0	44515	18354	94	
1211	0	44518	18355	94	
1212	0	44522	18359	94	
1213	0	44531	18359	94	
1214	0	44524	18365	94	
1215	0	44526	18365	94	
1216	0	44529	18367	94	
1217	0	44540	18367	94	
1218	0	44534	18371	94	
1219	0	44547	18375	94	
1220	0	44553	18380	94	
1221	0	44551	18379	94	
1222	0	44565	18380	94	
1223	0	44571	18389	94	
1224	0	44576	18391	94	
1225	0	44567	18385	94	
1226	0	44573	18387	94	
1227	0	44566	18391	94	
1228	0	44557	18386	94	
1229	0	44545	18381	94	
1230	0	44529	18375	94	
1231	0	44519	18363	94	
1232	0	44499	18350	94	
1233	0	44482	18337	94	
1234	0	44462	18321	94	
1235	0	44442	18311	94	
1236	0	44425	18298	94	
1237	0	44418	18292	94	
1238	0	44427	18293	94	
1239	0	44423	18293	94	
1240	0	44428	18291	94	
1241	0	44431	18297	94	
1242	0	44445	18298	94	
1243	0	44450	18305	94	
1244	0	44457	18308	94	
1245	0	44467	18310	94	
1246	0	44467	18311	94	
1247	0	44476	18312	94	
1248	0	44481	18315	94	
1249	0	44480	18316	94	
1250	0	44493	18322	94	
1251	0	44496	18322	94	
1252	0	44497	18322	94	
1253	0	44493	18315	94	
1254	0	44495	18325	94	
1255	0	44494	18320	94	
1256	0	44496	18320	94	
1257	0	44496	18319	94	
1258	0	44500	18318	94	
1259	0	44495	18315	94	
1260	0	44493	18311	94	
1261	0	44491	18308	94	
1262	0	44495	18313	94	
1263	0	44496	18308	94	
1264	0	44502	18310	94	
1265	0	44501	18313	94	
1266	0	44511	18313	94	
1267	0	44507	18314	94	
1268	0	44519	18320	94	
1269	0	44523	18325	94	
1270	0	44529	18323	94	
1271	0	44527	18321	94	
1272	0	44526	18328	94	
1273	0	44539	18330	94	
1274	0	44538	18333	94	
1275	0	44541	18332	94	
1276	0	44552	18337	94	
1277	0	44544	18340	94	
1278	0	44552	18349	94	
1279	0	44563	18352	94	
1280	0	44567	18349	94	
1281	0	44567	18350	94	
1282	0	44569	18354	94	
1283	0	44573	18353	94	
1284	0	44571	18352	94	
1285	0	44574	18354	94	
1286	0	44576	18360	94	
1287	0	44579	18365	94	
1288	0	44577	18367	94	
1289	0	44584	18367	94	
1290	0	44586	18371	94	
1291	0	44593	18369	94	
1292	0	44587	18371	94	
1293	0	44593	18373	94	
1294	0	44597	18375	94	
1295	0	44607	18381	94	
1296	0	44611	18386	94	
1297	0	44604	18385	94	
1298	0	44610	18384	94	
1299	0	44614	18389	94	
1300	0	44601	18386	94	
1301	0	44597	18385	94	
1302	0	44584	18375	94	
1303	0	44564	18367	94	
1304	0	44543	18356	94	
1305	0	44524	18342	94	
1306	0	44515	18332	94	
1307	0	44498	18322	94	
1308	0	44493	18315	94	
1309	0	44488	18315	94	
1310	0	44489	18309	94	
1311	0	44493	18308	94	
1312	0	44492	18313	94	
1313	0	44500	18313	94	
1314	0	44501	18320	94	
1315	0	44507	18320	94	
1316	0	44510	18324	94	
1317	0	44509	18324	94	
1318	0	44513	18329	94	
1319	0	44522	18331	94	
1320	0	44522	18334	94	
1321	0	44526	18335	94	
1322	0	44539	18339	94	
1323	0	44535	18344	94	
1324	0	44541	18343	94	
1325	0	44545	18344	94	
1326	0	44549	18344	94	
1327	0	44548	18345	94	
1328	0	44542	18345	94	
1329	0	44544	18349	94	
1330	0	44547	18345	94	
1331	0	44545	18344	94	
1332	0	44542	18346	94	
1333	0	44550	18345	94	
1334	0	44550	18344	94	
1335	0	44544	18346	94	
1336	0	44550	18350	94	
1337	0	44561	18353	94	
1338	0	44562	18356	94	
1339	0	44573	18361	94	
1340	0	44579	18360	94	
1341	0	44585	18368	94	
1342	0	44587	18367	94	
1343	0	44586	18369	94	
1344	0	44594	18372	94	
1345	0	44592	18377	94	
1346	0	44600	18377	94	
1347	0	44610	18384	94	
1348	0	44617	18384	94	
1349	0	44615	18389	94	
1350	0	44618	18390	94	
1351	0	44625	18394	94	
1352	0	44624	18391	94	
1353	0	44631	18394	94	
1354	0	44628	18394	94	
1355	0	44627	18396	94	
1356	0	44630	18398	94	
1357	0	44629	18405	94	
1358	0	44633	18409	94	
1359	0	44645	18410	94	
1360	0	44640	18412	94	
1361	0	44650	18412	94	
1362	0	44644	18415	94	
1363	0	44652	18419	94	
1364	0	44652	18424	94	
1365	0	44655	18428	94	
1366	0	44671	18432	94	
1367	0	44678	18438	94	
1368	0	44682	18437	94	
1369	0	44684	18439	94	
1370	0	44693	18441	94	
1371	0	44690	18440	94	
1372	0	44679	18438	94	
1373	0	44667	18437	94	
1374	0	44655	18426	94	
1375	0	44638	18418	94	
1376	0	44624	18409	94	
1377	0	44610	18394	94	
1378	0	44589	18380	94	
1379	0	44570	18370	94	
1380	0	44554	18359	94	
1381	0	44550	18359	94	
1382	0	44541	18352	94	
1383	0	44532	18350	94	
1384	0	44534	18348	94	
1385	0	44537	18348	94	
1386	0	44542	18353	94	
1387	0	44545	18350	94	
1388	0	44553	18361	94	
1389	0	44560	18359	94	
1390	0	44560	18360	94	
1391	0	44570	18360	94	
1392	0	44572	18365	94	
1393	0	44572	18364	94	
1394	0	44570	18365	94	
1395	0	44577	18369	94	
1396	0	44575	18369	94	
1397	0	44576	18370	94	
1398	0	44583	18377	94	
1399	0	44583	18376	94	
1400	0	44587	18373	94	
1401	0	44583	18374	94	
1402	0	44583	18374	94	
1403	0	44587	18373	94	
1404	0	44582	18368	94	
1405	0	44581	18370	94	
1406	0	44576	18369	94	
1407	0	44577	18372	94	
1408	0	44583	18371	94	
1409	0	44583	18377	94	
1410	0	44586	18379	94	
1411	0	44592	18377	94	
1412	0	44595	18378	94	
1413	0	44594	18381	94	
1414	0	44594	18389	94	
1415	0	44611	18389	94	
1416	0	44614	18397	94	
1417	0	44616	18399	94	
1418	0	44622	18399	94	
1419	0	44628	18402	94	
1420	0	44623	18406	94	
1421	0	44622	18412	94	
1422	0	44629	18412	94	
1423	0	44633	18416	94	
1424	0	44630	18422	94	
1425	0	44641	18424	94	
1426	0	44636	18429	94	
1427	0	44639	18433	94	
1428	0	44643	18442	94	
1429	0	44655	18449	94	
1430	0	44654	18457	94	
1431	0	44664	18459	94	
1432	0	44679	18468	94	
1433	0	44684	18476	94	
1434	0	44693	18482	94	
1435	0	44693	18481	94	
1436	0	44702	18483	94	
1437	0	44701	18490	94	
1438	0	44709	18492	94	
1439	0	44713	18494	94	
1440	0	44716	18502	94	
1441	0	44714	18505	94	
1442	0	44721	18510	94	
1443	0	44732	18516	94	
1444	0	44743	18524	94	
1445	0	44743	18529	94	
1446	0	44745	18521	94	
1447	0	44737	18526	94	
1448	0	44732	18521	94	
1449	0	44715	18514	94	
1450	0	44693	18506	94	
1451	0	44673	18495	94	
1452	0	44651	18488	94	
1453	0	44629	18475	94	
1454	0	44622	18467	94	
1455	0	44610	18464	94	
1456	0	44607	18461	94	
1457	0	44613	18460	94	
1458	0	44605	18458	94	
1459	0	44611	18462	94	
1460	0	44610	18462	94	
1461	0	44612	18469	94	
1462	0	44616	18469	94	
1463	0	44620	18477	94	
1464	0	44627	18480	94	
1465	0	44636	18481	94	
1466	0	44635	18492	94	
1467	0	44638	18495	94	
1468	0	44639	18500	94	
1469	0	44644	18509	94	
1470	0	44646	18514	94	
1471	0	44649	18522	94	
1472	0	44647	18528	94	
1473	0	44656	18531	94	
1474	0	44664	18540	94	
1475	0	44672	18542	94	
1476	0	44683	18549	94	
1477	0	44688	18554	94	
1478	0	44685	18553	94	
1479	0	44693	18560	94	
1480	0	44692	18561	94	
1481	0	44696	18567	94	
1482	0	44701	18565	94	
1483	0	44704	18572	94	
1484	0	44707	18575	94	
1485	0	44722	18578	94	
1486	0	44717	18587	94	
1487	0	44730	18594	94	
1488	0	44739	18599	94	
1489	0	44747	18607	94	
1490	0	44748	18609	94	
1491	0	44757	18619	94	
1492	0	44763	18625	94	
1493	0	44780	18627	94	
1494	0	44783	18633	94	
1495	0	44792	18642	94	
1496	0	44796	18643	94	
1497	0	44801	18642	94	
1498	0	44805	18649	94	
1499	0	44810	18654	94	
1500	0	44811	18656	94	
1501	0	44819	18661	94	
1502	0	44816	18659	94	
1503	0	44816	18664	94	
1504	0	44823	18665	94	
1505	0	44831	18673	94	
1506	0	44836	18680	94	
1507	0	44846	18680	94	
1508	0	44848	18686	94	
1509	0	44852	18686	94	
1510	0	44855	18688	94	
1511	0	44856	18689	94	
1512	0	44857	18688	94	
1513	0	44864	18692	94	
1514	0	44864	18692	94	
1515	0	44865	18702	94	
1516	0	44875	18707	94	
1517	0	44890	18709	94	
1518	0	44894	18716	94	
1519	0	44891	18712	94	
1520	0	44894	18712	94	
1521	0	44887	18713	94	
1522	0	44869	18710	94	
1523	0	44864	18706	94	
1524	0	44840	18698	94	
1525	0	44819	18689	94	
1526	0	44812	18680	94	
1527	0	44794	18672	94	
1528	0	44789	18663	94	
1529	0	44782	18653	94	
1530	0	44768	18649	94	
1531	0	44765	18644	94	
1532	0	44764	18638	94	
1533	0	44763	18638	94	
1534	0	44759	18640	94	
1535	0	44765	18636	94	
1536	0	44765	18637	94	
1537	0	44762	18639	94	
1538	0	44760	18647	94	
1539	0	44761	18645	94	
1540	0	44769	18648	94	
1541	0	44782	18655	94	
1542	0	44784	18656	94	
1543	0	44789	18656	94	
1544	0	44798	18658	94	
1545	0	44797	18661	94	
1546	0	44795	18661	94	
1547	0	44799	18664	94	
1548	0	44805	18664	94	
1549	0	44802	18666	94	
1550	0	44803	18664	94	
1551	0	44808	18669	94	
1552	0	44798	18662	94	
1553	0	44801	18657	94	
1554	0	44795	18656	94	
1555	0	44796	18654	94	
1556	0	44791	18651	94	
1557	0	44798	18655	94	
1558	0	44802	18657	94	
1559	0	44796	18659	94	
1560	0	44804	18659	94	
1561	0	44808	18662	94	
1562	0	44813	18664	94	
1563	0	44814	18665	94	
1564	0	44823	18667	94	
1565	0	44833	18671	94	
1566	0	44827	18673	94	
1567	0	44831	18675	94	
1568	0	44821	18672	94	
1569	0	44825	18676	94	
1570	0	44831	18676	94	
1571	0	44830	18677	94	
1572	0	44831	18678	94	
1573	0	44832	18683	94	
1574	0	44832	18685	94	
1575	0	44839	18690	94	
1576	0	44844	18694	94	
1577	0	44849	18698	94	
1578	0	44853	18700	94	
1579	0	44853	18703	94	
1580	0	44862	18706	94	
1581	0	44866	18711	94	
1582	0	44868	18713	94	
1583	0	44871	18713	94	
1584	0	44877	18714	94	
1585	0	44875	18720	94	
1586	0	44872	18723	94	
1587	0	44882	18724	94	
1588	0	44885	18725	94	
1589	0	44887	18727	94	
1590	0	44895	18733	94	
1591	0	44891	18734	94	
1592	0	44896	18739	94	
1593	0	44893	18739	94	
1594	0	44891	18738	94	
1595	0	44878	18734	94	
1596	0	44865	18728	94	
1597	0	44855	18720	94	
1598	0	44838	18709	94	
1599	0	44817	18701	94	
1600	0	44807	18690	94	
1601	0	44795	18681	94	
1602	0	44785	18676	94	
1603	0	44781	18670	94	
1604	0	44785	18669	94	
1605	0	44787	18669	94	
1606	0	44782	18668	94	
1607	0	44790	18670	94	
1608	0	44780	18666	94	
1609	0	44776	18666	94	
1610	0	44779	18668	94	
1611	0	44784	18671	94	
1612	0	44786	18669	94	
1613	0	44792	18670	94	
1614	0	44802	18675	94	
1615	0	44804	18674	94	
1616	0	44804	18676	94	
1617	0	44808	18680	94	
1618	0	44803	18679	94	
1619	0	44800	18676	94	
1620	0	44804	18673	94	
1621	0	44797	18678	94	
1622	0	44797	18678	94	
1623	0	44799	18674	94	
1624	0	44796	18679	94	
1625	0	44803	18678	94	
1626	0	44809	18676	94	
1627	0	44806	18672	94	
1628	0	44808	18671	94	
1629	0	44799	18670	94	
1630	0	44798	18670	94	
1631	0	44799	18671	94	
1632	0	44804	18675	94	
1633	0	44808	18679	94	
1634	0	44806	18680	94	
1635	0	44816	18682	94	
1636	0	44819	18683	94	
1637	0	44826	18690	94	
1638	0	44839	18691	94	
1639	0	44827	18696	94	
1640	0	44837	18695	94	
1641	0	44843	18700	94	
1642	0	44836	18701	94	
1643	0	44834	18700	94	
1644	0	44837	18700	94	
1645	0	44832	18704	94	
1646	0	44847	18705	94	
1647	0	44849	18710	94	
1648	0	44845	18711	94	
1649	0	44857	18718	94	
1650	0	44865	18720	94	
1651	0	44867	18724	94	
1652	0	44869	18721	94	
1653	0	44867	18724	94	
1654	0	44867	18721	94	
1655	0	44864	18725	94	
1656	0	44861	18724	94	
1657	0	44864	18729	94	
1658	0	44876	18726	94	
1659	0	44874	18732	94	
1660	0	44877	18739	94	
1661	0	44890	18740	94	
1662	0	44903	18744	94	
1663	0	44901	18747	94	
1664	0	44906	18750	94	
1665	0	44915	18747	94	
1666	0	44910	18751	94	
1667	0	44907	18748	94	
1668	0	44900	18752	94	
1669	0	44894	18743	94	
1670	0	44880	18736	94	
1671	0	44861	18728	94	
1672	0	44841	18718	94	
1673	0	44820	18705	94	
1674	0	44797	18697	94	
1675	0	44788	18690	94	
1676	0	44773	18678	94	
1677	0	44761	18672	94	
1678	0	44765	18667	94	
1679	0	44759	18662	94	
1680	0	44756	18662	94	
1681	0	44751	18660	94	
1682	0	44757	18659	94	
1683	0	44753	18655	94	
1684	0	44758	18658	94	
1685	0	44756	18656	94	
1686	0	44749	18656	94	
1687	0	44755	18653	94	
1688	0	44753	18657	94	
1689	0	44753	18654	94	
1690	0	44761	18659	94	
1691	0	44763	18661	94	
1692	0	44761	18661	94	
1693	0	44758	18662	94	
1694	0	44750	18657	94	
1695	0	44752	18661	94	
1696	0	44756	18658	94	
1697	0	44749	18661	94	
1698	0	44741	18660	94	
1699	0	44744	18662	94	
1700	0	44749	18667	94	
1701	0	44754	18667	94	
1702	0	44758	18666	94	
1703	0	44762	18666	94	
1704	0	44759	18668	94	
1705	0	44758	18671	94	
1706	0	44764	18667	94	
1707	0	44768	18669	94	
1708	0	44765	18671	94	
1709	0	44764	18671	94	
1710	0	44775	18675	94	
1711	0	44778	18680	94	
1712	0	44787	18680	94	
1713	0	44789	18681	94	
1714	0	44793	18682	94	
1715	0	44790	18684	94	
1716	0	44795	18689	94	
1717	0	44799	18689	94	
1718	0	44802	18694	94	
1719	0	44802	18693	94	
1720	0	44803	18691	94	
1721	0	44807	18694	94	
1722	0	44811	18696	94	
1723	0	44812	18697	94	
1724	0	44820	18702	94	
1725	0	44814	18698	94	
1726	0	44818	18700	94	
1727	0	44808	18703	94	
1728	0	44818	18706	94	
1729	0	44817	18705	94	
1730	0	44816	18705	94	
1731	0	44815	18711	94	
1732	0	44826	18714	94	
1733	0	44833	18715	94	
1734	0	44829	18717	94	
1735	0	44832	18718	94	
1736	0	44837	18722	94	
1737	0	44836	18719	94	
1738	0	44846	18723	94	
1739	0	44841	18725	94	
1740	0	44851	18730	94	
1741	0	44853	18728	94	
1742	0	44855	18734	94	
1743	0	44856	18727	94	
1744	0	44849	18732	94	
1745	0	44842	18731	94	
1746	0	44841	18732	94	
1747	0	44836	18731	94	
1748	0	44825	18718	94	
1749	0	44807	18708	94	
1750	0	44785	18697	94	
1751	0	44757	18682	94	
1752	0	44738	18665	94	
1753	0	44722	18652	94	
1754	0	44704	18644	94	
1755	0	44699	18638	94	
1756	0	44690	18626	94	
1757	0	44679	18622	94	
1758	0	44679	18621	94	
1759	0	44682	18620	94	
1760	0	44678	18619	94	
1761	0	44675	18615	94	
1762	0	44675	18616	94	
1763	0	44683	18621	94	
1764	0	44675	18617	94	
1765	0	44677	18616	94	
1766	0	44687	18618	94	
1767	0	44682	18619	94	
1768	0	44686	18619	94	
1769	0	44696	18621	94	
1770	0	44695	18614	94	
1771	0	44692	18616	94	
1772	0	44689	18617	94	
1773	0	44684	18616	94	
1774	0	44687	18611	94	
1775	0	44685	18607	94	
1776	0	44682	18605	94	
1777	0	44681	18603	94	
1778	0	44685	18605	94	
1779	0	44672	18600	94	
1780	0	44680	18599	94	
1781	0	44677	18597	94	
1782	0	44674	18596	94	
1783	0	44672	18592	94	
1784	0	44671	18595	94	
1785	0	44675	18591	94	
1786	0	44673	18597	94	
1787	0	44683	18594	94	
1788	0	44687	18595	94	
1789	0	44690	18597	94	
1790	0	44689	18593	94	
1791	0	44692	18597	94	
1792	0	44686	18594	94	
1793	0	44685	18599	94	
1794	0	44685	18598	94	
1795	0	44684	18599	94	
1796	0	44681	18607	94	
1797	0	44685	18607	94	
1798	0	44683	18612	94	
1799	0	44698	18618	94	
1800	0	44706	18619	94	
1801	0	44707	18623	94	
1802	0	44704	18622	94	
1803	0	44708	18622	94	
1804	0	44702	18628	94	
1805	0	44711	18626	94	
1806	0	44714	18629	94	
1807	0	44711	18627	94	
1808	0	44715	18635	94	
1809	0	44711	18633	94	
1810	0	44723	18638	94	
1811	0	44723	18635	94	
1812	0	44722	18641	94	
1813	0	44724	18641	94	
1814	0	44729	18640	94	
1815	0	44731	18644	94	
1816	0	44731	18643	94	
1817	0	44723	18646	94	
1818	0	44730	18647	94	
1819	0	44734	18651	94	
1820	0	44740	18654	94	
1821	0	44739	18654	94	
1822	0	44746	18655	94	
1823	0	44748	18660	94	
1824	0	44750	18661	94	
1825	0	44750	18664	94	
1826	0	44755	18661	94	
1827	0	44760	18668	94	
1828	0	44756	18666	94	
1829	0	44752	18668	94	
1830	0	44741	18664	94	
1831	0	44727	18652	94	
1832	0	44709	18646	94	
1833	0	44694	18634	94	
1834	0	44675	18628	94	
1835	0	44655	18613	94	
1836	0	44643	18599	94	
1837	0	44626	18592	94	
1838	0	44615	18579	94	
1839	0	44614	18578	94	
1840	0	44609	18576	94	
1841	0	44606	18572	94	
1842	0	44601	18571	94	
1843	0	44606	18571	94	
1844	0	44609	18570	94	
1845	0	44614	18574	94	
1846	0	44611	18575	94	
1847	0	44615	18573	94	
1848	0	44609	18573	94	
1849	0	44619	18572	94	
1850	0	44616	18568	94	
1851	0	44614	18569	94	
1852	0	44609	18568	94	
1853	0	44617	18569	94	
1854	0	44614	18567	94	
1855	0	44613	18566	94	
1856	0	44608	18567	94	
1857	0	44616	18569	94	
1858	0	44617	18566	94	
1859	0	44606	18564	94	
1860	0	44603	18555	94	
1861	0	44600	18553	94	
1862	0	44597	18554	94	
1863	0	44592	18550	94	
1864	0	44591	18549	94	
1865	0	44588	18548	94	
1866	0	44589	18551	94	
1867	0	44592	18548	94	
1868	0	44592	18551	94	
1869	0	44593	18552	94	
1870	0	44606	18554	94	
1871	0	44608	18556	94	
1872	0	44612	18560	94	
1873	0	44618	18554	94	
1874	0	44619	18556	94	
1875	0	44626	18561	94	
1876	0	44627	18556	94	
1877	0	44636	18558	94	
1878	0	44635	18560	94	
1879	0	44642	18554	94	
1880	0	44641	18553	94	
1881	0	44644	18551	94	
1882	0	44632	18542	94	
1883	0	44628	18537	94	
1884	0	44629	18530	94	
1885	0	44610	18528	94	
1886	0	44604	18527	94	
1887	0	44602	18529	94	
1888	0	44603	18528	94	
1889	0	44609	18528	94	
1890	0	44603	18528	94	
1891	0	44606	18527	94	
1892	0	44608	18522	94	
1893	0	44612	18523	94	
1894	0	44605	18525	94	
1895	0	44606	18522	94	
1896	0	44598	18521	94	
1897	0	44597	18522	94	
1898	0	44601	18525	94	
1899	0	44604	18524	94	
1900	0	44601	18523	94	
1901	0	44606	18526	94	
1902	0	44607	18530	94	
1903	0	44611	18529	94	
1904	0	44610	18532	94	
1905	0	44611	18531	94	
1906	0	44613	18529	94	
1907	0	44618	18536	94	
1908	0	44612	18536	94	
1909	0	44604	18534	94	
1910	0	44605	18534	94	
1911	0	44589	18527	94	
1912	0	44575	18523	94	
1913	0	44562	18517	94	
1914	0	44545	18504	94	
1915	0	44519	18488	94	
1916	0	44503	18479	94	
1917	0	44489	18470	94	
1918	0	44477	18462	94	
1919	0	44464	18456	94	
1920	0	44464	18452	94	
1921	0	44466	18451	94	
1922	0	44455	18451	94	
1923	0	44461	18452	94	
1924	0	44465	18450	94	
1925	0	44462	18447	94	
1926	0	44462	18449	94	
1927	0	44468	18452	94	
1928	0	44471	18451	94	
1929	0	44468	18452	94	
1930	0	44466	18453	94	
1931	0	44474	18450	94	
1932	0	44476	18451	94	
1933	0	44484	18451	94	
1934	0	44482	18452	94	
1935	0	44481	18451	94	
1936	0	44470	18448	94	
1937	0	44475	18443	94	
1938	0	44474	18442	94	
1939	0	44463	18441	94	
1940	0	44466	18441	94	
1941	0	44468	18437	94	
1942	0	44466	18430	94	
1943	0	44464	18434	94	
1944	0	44457	18430	94	
1945	0	44466	18430	94	
1946	0	44468	18430	94	
1947	0	44463	18436	94	
1948	0	44470	18433	94	
1949	0	44476	18433	94	
1950	0	44477	18433	94	
1951	0	44481	18432	94	
1952	0	44480	18431	94	
1953	0	44481	18431	94	
1954	0	44469	18428	94	
1955	0	44471	18425	94	
1956	0	44463	18428	94	
1957	0	44464	18428	94	
1958	0	44466	18427	94	
1959	0	44466	18429	94	
1960	0	44478	18437	94	
1961	0	44483	18440	94	
1962	0	44479	18439	94	
1963	0	44478	18441	94	
1964	0	44473	18440	94	
1965	0	44479	18444	94	
1966	0	44477	18446	94	
1967	0	44489	18449	94	
1968	0	44487	18454	94	
1969	0	44488	18458	94	
1970	0	44496	18455	94	
1971	0	44500	18457	94	
1972	0	44494	18462	94	
1973	0	44496	18464	94	
1974	0	44491	18460	94	
1975	0	44504	18468	94	
1976	0	44505	18475	94	
1977	0	44512	18480	94	
1978	0	44516	18482	94	
1979	0	44524	18483	94	
1980	0	44524	18485	94	
1981	0	44528	18484	94	
1982	0	44527	18486	94	
1983	0	44527	18489	94	
1984	0	44536	18491	94	
1985	0	44531	18493	94	
1986	0	44543	18491	94	
1987	0	44541	18495	94	
1988	0	44543	18500	94	
1989	0	44542	18495	94	
1990	0	44540	18507	94	
1991	0	44536	18500	94	
1992	0	44532	18506	94	
1993	0	44530	18503	94	
1994	0	44509	18499	94	
1995	0	44500	18495	94	
1996	0	44479	18482	94	
1997	0	44455	18474	94	
1998	0	44426	18462	94	
1999	0	44412	18447	94	
2000	0	44397	18446	94	
2001	0	44392	18441	94	
2002	0	44388	18443	94	
2003	0	44395	18441	94	
2004	0	44399	18437	94	
2005	0	44406	18444	94	
2006	0	44415	18443	94	
2007	0	44411	18440	94	
2008	0	44416	18446	94	
2009	0	44426	18452	94	
2010	0	44423	18454	94	
2011	0	44424	18451	94	
2012	0	44435	18451	94	
2013	0	44427	18449	94	
2014	0	44425	18451	94	
2015	0	44423	18449	94	
2016	0	44425	18453	94	
2017	0	44433	18453	94	
2018	0	44434	18455	94	
2019	0	44443	18453	94	
2020	0	44434	18453	94	
2021	0	44439	18454	94	
2022	0	44443	18459	94	
2023	0	44445	18456	94	
2024	0	44437	18458	94	
2025	0	44440	18458	94	
2026	0	44440	18458	94	
2027	0	44447	18459	94	
2028	0	44446	18460	94	
2029	0	44452	18464	94	
2030	0	44456	18462	94	
2031	0	44462	18465	94	
2032	0	44462	18466	94	
2033	0	44464	18470	94	
2034	0	44471	18470	94	
2035	0	44477	18476	94	
2036	0	44486	18482	94	
2037	0	44482	18478	94	
2038	0	44487	18483	94	
2039	0	44489	18486	94	
2040	0	44501	18487	94	
2041	0	44494	18488	94	
2042	0	44495	18489	94	
2043	0	44506	18491	94	
2044	0	44502	18494	94	
2045	0	44507	18494	94	
2046	0	44516	18493	94	
2047	0	44517	18503	94	
2048	0	44515	18501	94	
2049	0	44524	18503	94	
2050	0	44527	18508	94	
2051	0	44535	18508	94	
2052	0	44535	18509	94	
2053	0	44533	18509	94	
2054	0	44534	18510	94	
2055	0	44538	18511	94	
2056	0	44538	18514	94	
2057	0	44542	18512	94	
2058	0	44544	18514	94	
2059	0	44546	18516	94	
2060	0	44545	18515	94	
2061	0	44543	18519	94	
2062	0	44549	18520	94	
2063	0	44550	18525	94	
2064	0	44554	18526	94	
2065	0	44564	18529	94	
2066	0	44570	18530	94	
2067	0	44564	18532	94	
2068	0	44571	18530	94	
2069	0	44571	18538	94	
2070	0	44577	18537	94	
2071	0	44576	18536	94	
2072	0	44585	18538	94	
2073	0	44584	18542	94	
2074	0	44591	18542	94	
2075	0	44587	18542	94	
2076	0	44589	18544	94	
2077	0	44581	18546	94	
2078	0	44581	18539	94	
2079	0	44562	18537	94	
2080	0	44555	18530	94	
2081	0	44532	18515	94	
2082	0	44518	18509	94	
2083	0	44486	18492	94	
2084	0	44467	18484	94	
2085	0	44452	18468	89	
2086	0	44441	18461	89	
2087	0	44435	18447	89	
2088	0	44429	18444	89	
2089	0	44422	18438	89	
2090	0	44419	18438	89	
2091	0	44418	18438	89	
2092	0	44422	18443	89	
2093	0	44432	18443	89	
2094	0	44435	18446	89	
2095	0	44435	18443	89	
2096	0	44439	18446	89	
2097	0	44448	18449	89	
2098	0	44444	18455	89	
2099	0	44454	18450	89	
2100	0	44448	18451	89	
2101	0	44453	18456	89	
2102	0	44457	18462	89	
2103	0	44466	18458	89	
2104	0	44462	18459	89	
2105	0	44466	18459	89	
2106	0	44464	18456	89	
2107	0	44455	18457	89	
2108	0	44454	18454	89	
2109	0	44457	18453	89	
2110	0	44455	18454	89	
2111	0	44457	18445	89	
2112	0	44453	18448	89	
2113	0	44449	18447	89	
2114	0	44450	18444	89	
2115	0	44457	18447	89	
2116	0	44457	18445	89	
2117	0	44464	18450	89	
2118	0	44467	18450	89	
2119	0	44473	18457	89	
2120	0	44477	18455	89	
2121	0	44478	18452	89	
2122	0	44481	18459	89	
2123	0	44481	18457	89	
2124	0	44490	18458	89	
2125	0	44488	18460	89	
2126	0	44493	18463	89	
2127	0	44498	18463	89	
2128	0	44502	18465	89	
2129	0	44503	18467	89	
2130	0	44505	18471	89	
2131	0	44506	18470	89	
2132	0	44503	18471	89	
2133	0	44509	18471	89	
2134	0	44507	18475	89	
2135	0	44510	18473	89	
2136	0	44511	18475	89	
2137	0	44515	18470	89	
2138	0	44508	18471	89	
2139	0	44510	18474	89	
2140	0	44512	18476	89	
2141	0	44515	18477	89	
2142	0	44522	18477	89	
2143	0	44514	18475	89	
2144	0	44514	18474	89	
2145	0	44517	18481	89	
2146	0	44523	18480	89	
2147	0	44529	18484	89	
2148	0	44529	18484	89	
2149	0	44532	18484	89	
2150	0	44529	18481	89	
2151	0	44527	18485	89	
2152	0	44536	18482	89	
2153	0	44540	18484	89	
2154	0	44538	18485	89	
2155	0	44539	18489	89	
2156	0	44544	18486	89	
2157	0	44538	18492	89	
2158	0	44536	18492	89	
2159	0	44532	18492	89	
2160	0	44531	18488	89	
2161	0	44523	18483	89	
2162	0	44515	18477	89	
2163	0	44499	18469	89	
2164	0	44480	18459	89	
2165	0	44462	18447	89	
2166	0	44440	18432	89	
2167	0	44425	18421	89	
2168	0	44410	18416	89	
2169	0	44399	18409	89	
2170	0	44393	18400	89	
2171	0	44389	18398	89	
2172	0	44385	18397	89	
2173	0	44379	18399	89	
2174	0	44386	18398	89	
2175	0	44397	18402	89	
2176	0	44399	18408	89	
2177	0	44415	18406	89	
2178	0	44415	18415	89	
2179	0	44420	18415	89	
2180	0	44420	18417	89	
2181	0	44431	18417	89	
2182	0	44430	18423	89	
2183	0	44432	18419	89	
2184	0	44428	18422	89	
2185	0	44430	18425	89	
2186	0	44429	18423	89	
2187	0	44424	18426	89	
2188	0	44423	18423	89	
2189	0	44415	18421	89	
2190	0	44419	18430	89	
2191	0	44417	18429	89	
2192	0	44419	18429	89	
2193	0	44419	18431	89	
2194	0	44420	18433	89	
2195	0	44420	18436	89	
2196	0	44424	18442	89	
2197	0	44431	18453	89	
2198	0	44435	18456	89	
2199	0	44446	18458	89	
2200	0	44445	18465	89	
2201	0	44458	18469	89	
2202	0	44462	18476	89	
2203	0	44474	18485	89	
2204	0	44478	18495	89	
2205	0	44497	18498	89	
2206	0	44500	18507	89	
2207	0	44514	18509	89	
2208	0	44517	18512	89	
2209	0	44527	18521	89	
2210	0	44532	18519	89	
2211	0	44537	18526	89	
2212	0	44540	18529	89	
2213	0	44545	18526	89	
2214	0	44555	18532	89	
2215	0	44560	18538	89	
2216	0	44554	18539	89	
2217	0	44565	18540	89	
2218	0	44569	18542	89	
2219	0	44559	18542	89	
2220	0	44568	18544	89	
2221	0	44565	18544	89	
2222	0	44575	18544	89	
2223	0	44573	18547	89	
2224	0	44582	18549	89	
2225	0	44586	18546	89	
2226	0	44585	18551	89	
2227	0	44584	18551	89	
2228	0	44582	18547	89	
2229	0	44582	18549	89	
2230	0	44580	18550	89	
2231	0	44583	18549	89	
2232	0	44585	18553	89	
2233	0	44578	18555	89	
2234	0	44581	18561	89	
2235	0	44591	18564	89	
2236	0	44599	18571	89	
2237	0	44607	18574	89	
2238	0	44603	18573	89	
2239	0	44589	18572	89	
2240	0	44578	18567	89	
2241	0	44562	18555	89	
2242	0	44539	18548	89	
2243	0	44511	18537	89	
2244	0	44503	18525	89	
2245	0	44486	18518	89	
2246	0	44473	18505	89	
2247	0	44455	18491	89	
2248	0	44448	18482	89	
2249	0	44440	18476	89	
2250	0	44433	18477	89	
2251	0	44435	18474	89	
2252	0	44428	18473	89	
2253	0	44430	18476	89	
2254	0	44438	18478	89	
2255	0	44442	18481	89	
2256	0	44445	18489	89	
2257	0	44458	18489	89	
2258	0	44466	18490	89	
2259	0	44469	18494	89	
2260	0	44475	18493	89	
2261	0	44475	18495	89	
2262	0	44476	18498	89	
2263	0	44477	18498	89	
2264	0	44479	18499	89	
2265	0	44476	18501	89	
2266	0	44478	18499	89	
2267	0	44478	18501	89	
2268	0	44478	18501	89	
2269	0	44469	18503	89	
2270	0	44475	18502	89	
2271	0	44477	18500	89	
2272	0	44483	18500	89	
2273	0	44476	18504	89	
2274	0	44481	18506	89	
2275	0	44482	18503	89	
2276	0	44489	18507	89	
2277	0	44500	18510	89	
2278	0	44504	18512	89	
2279	0	44507	18513	89	
2280	0	44509	18516	89	
2281	0	44507	18517	89	
2282	0	44512	18525	89	
2283	0	44515	18526	89	
2284	0	44527	18532	89	
2285	0	44540	18538	89	
2286	0	44550	18540	89	
2287	0	44552	18541	89	
2288	0	44561	18544	89	
2289	0	44567	18544	89	
2290	0	44566	18543	89	
2291	0	44567	18543	89	
2292	0	44577	18545	89	
2293	0	44569	18546	89	
2294	0	44583	18549	89	
2295	0	44586	18546	89	
2296	0	44583	18549	89	
2297	0	44588	18551	89	
2298	0	44589	18551	89	
2299	0	44590	18550	89	
2300	0	44593	18547	89	
2301	0	44594	18546	89	
2302	0	44605	18550	89	
2303	0	44598	18547	89	
2304	0	44594	18546	89	
2305	0	44586	18541	89	
2306	0	44585	18545	89	
2307	0	44584	18544	89	
2308	0	44583	18545	89	
2309	0	44581	18546	89	
2310	0	44590	18548	89	
2311	0	44592	18547	89	
2312	0	44593	18552	89	
2313	0	44598	18553	89	
2314	0	44607	18560	89	
2315	0	44616	18556	89	
2316	0	44608	18552	89	
2317	0	44606	18552	89	
2318	0	44595	18542	89	
2319	0	44587	18533	89	
2320	0	44565	18517	89	
2321	0	44551	18499	89	
2322	0	44519	18482	89	
2323	0	44499	18466	89	
2324	0	44480	18449	89	
2325	0	44465	18439	89	
2326	0	44455	18429	89	
2327	0	44447	18421	89	
2328	0	44447	18415	89	
2329	0	44435	18412	89	
2330	0	44427	18407	89	
2331	0	44424	18406	89	
2332	0	44420	18407	89	
2333	0	44417	18404	89	
2334	0	44418	18402	89	
2335	0	44424	18404	89	
2336	0	44425	18406	89	
2337	0	44436	18410	89	
2338	0	44437	18413	89	
2339	0	44444	18415	89	
2340	0	44445	18417	89	
2341	0	44443	18417	89	
2342	0	44446	18420	89	
2343	0	44458	18415	89	
2344	0	44458	18416	89	
2345	0	44445	18413	89	
2346	0	44441	18407	89	
2347	0	44433	18408	89	
2348	0	44426	18407	89	
2349	0	44419	18402	89	
2350	0	44421	18402	89	
2351	0	44424	18402	89	
2352	0	44428	18401	89	
2353	0	44432	18401	89	
2354	0	44428	18406	89	
2355	0	44428	18403	89	
2356	0	44430	18406	89	
2357	0	44437	18408	89	
2358	0	44443	18410	89	
2359	0	44450	18415	89	
2360	0	44450	18411	89	
2361	0	44448	18412	89	
2362	0	44450	18414	89	
2363	0	44445	18416	89	
2364	0	44448	18416	89	
2365	0	44459	18424	89	
2366	0	44462	18427	89	
2367	0	44465	18431	89	
2368	0	44470	18435	89	
2369	0	44473	18438	89	
2370	0	44474	18439	89	
2371	0	44475	18443	89	
2372	0	44483	18444	89	
2373	0	44488	18449	89	
2374	0	44485	18448	89	
2375	0	44489	18451	89	
2376	0	44497	18456	89	
2377	0	44505	18459	89	
2378	0	44500	18459	89	
2379	0	44503	18465	89	
2380	0	44508	18471	89	
2381	0	44510	18476	89	
2382	0	44523	18478	89	
2383	0	44525	18477	89	
2384	0	44532	18482	89	
2385	0	44537	18486	94	
2386	0	44541	18485	94	
2387	0	44548	18490	94	
2388	0	44552	18492	94	
2389	0	44551	18495	94	
2390	0	44559	18495	94	
2391	0	44559	18498	94	
2392	0	44556	18497	94	
2393	0	44558	18497	94	
2394	0	44555	18495	94	
2395	0	44541	18491	94	
2396	0	44525	18485	94	
2397	0	44508	18476	94	
2398	0	44492	18460	94	
2399	0	44479	18453	94	
2400	0	44459	18439	94	
2401	0	44446	18430	94	
2402	0	44429	18416	94	
2403	0	44421	18410	94	
2404	0	44420	18404	94	
2405	0	44416	18405	94	
2406	0	44419	18400	94	
2407	0	44425	18403	94	
2408	0	44418	18400	94	
2409	0	44426	18406	94	
2410	0	44429	18403	94	
2411	0	44435	18403	94	
2412	0	44443	18405	94	
2413	0	44437	18408	94	
2414	0	44443	18416	94	
2415	0	44443	18409	94	
2416	0	44441	18408	94	
2417	0	44444	18413	94	
2418	0	44438	18415	94	
2419	0	44445	18416	94	
2420	0	44446	18419	94	
2421	0	44448	18417	94	
2422	0	44444	18415	94	
2423	0	44448	18417	94	
2424	0	44451	18411	94	
2425	0	44446	18411	94	
2426	0	44438	18408	94	
2427	0	44440	18403	94	
2428	0	44432	18401	94	
2429	0	44440	18400	94	
2430	0	44437	18404	94	
2431	0	44442	18408	94	
2432	0	44442	18408	94	
2433	0	44454	18411	94	
2434	0	44463	18411	94	
2435	0	44461	18410	94	
2436	0	44461	18410	94	
2437	0	44467	18414	94	
2438	0	44469	18415	94	
2439	0	44473	18418	94	
2440	0	44476	18426	94	
2441	0	44486	18422	94	
2442	0	44484	18423	94	
2443	0	44490	18426	94	
2444	0	44495	18431	94	
2445	0	44493	18430	94	
2446	0	44490	18428	94	
2447	0	44493	18426	94	
2448	0	44498	18427	94	
2449	0	44500	18427	94	
2450	0	44492	18432	94	
2451	0	44499	18430	94	
2452	0	44495	18433	94	
2453	0	44503	18437	94	
2454	0	44522	18437	94	
2455	0	44541	18442	94	
2456	0	44548	18441	94	
2457	0	44549	18439	94	
2458	0	44554	18441	94	
2459	0	44542	18434	94	
2460	0	44551	18431	94	
2461	0	44562	18433	94	
2462	0	44565	18429	94	
2463	0	44564	18424	94	
2464	0	44558	18426	94	
2465	0	44559	18416	94	
2466	0	44551	18411	94	
2467	0	44539	18402	94	
2468	0	44506	18389	94	
2469	0	44474	18370	94	
2470	0	44452	18358	94	
2471	0	44430	18347	94	
2472	0	44417	18332	94	
2473	0	44399	18322	94	
2474	0	44389	18315	94	
2475	0	44372	18303	94	
2476	0	44353	18297	94	
2477	0	44348	18290	94	
2478	0	44339	18292	94	
2479	0	44342	18292	94	
2480	0	44349	18298	94	
2481	0	44363	18302	94	
2482	0	44367	18300	94	
2483	0	44372	18302	94	
2484	0	44366	18300	94	
2485	0	44361	18303	94	
2486	0	44352	18301	94	
2487	0	44349	18304	94	
2488	0	44353	18310	94	
2489	0	44360	18311	94	
2490	0	44371	18316	94	
2491	0	44369	18313	94	
2492	0	44369	18316	94	
2493	0	44364	18308	94	
2494	0	44358	18306	94	
2495	0	44343	18304	94	
2496	0	44338	18304	94	
2497	0	44329	18301	94	
2498	0	44331	18301	94	
2499	0	44322	18303	94	
2500	0	44313	18304	94	
2501	0	44316	18305	94	
2502	0	44316	18312	94	
2503	0	44319	18312	94	
2504	0	44328	18320	94	
2505	0	44333	18323	94	
2506	0	44345	18332	94	
2507	0	44355	18333	94	
2508	0	44359	18339	94	
2509	0	44367	18338	94	
2510	0	44373	18343	94	
2511	0	44380	18340	94	
2512	0	44374	18349	94	
2513	0	44381	18347	94	
2514	0	44382	18350	94	
2515	0	44385	18350	94	
2516	0	44392	18354	94	
2517	0	44394	18352	94	
2518	0	44392	18355	94	
2519	0	44391	18353	94	
2520	0	44392	18355	94	
2521	0	44396	18353	94	
2522	0	44392	18357	94	
2523	0	44390	18359	94	
2524	0	44394	18364	94	
2525	0	44406	18369	94	
2526	0	44408	18370	94	
2527	0	44405	18373	94	
2528	0	44418	18373	94	
2529	0	44426	18376	94	
2530	0	44427	18376	94	
2531	0	44426	18375	94	
2532	0	44416	18376	94	
2533	0	44410	18373	94	
2534	0	44398	18371	94	
2535	0	44377	18363	94	
2536	0	44368	18352	94	
2537	0	44349	18340	94	
2538	0	44341	18332	94	
2539	0	44319	18318	94	
2540	0	44304	18307	94	
2541	0	44288	18299	94	
2542	0	44270	18290	94	
2543	0	44266	18286	94	
2544	0	44263	18287	94	
2545	0	44268	18290	94	
2546	0	44278	18293	94	
2547	0	44286	18298	94	
2548	0	44292	18300	94	
2549	0	44298	18303	94	
2550	0	44305	18307	94	
2551	0	44308	18310	94	
2552	0	44314	18307	94	
2553	0	44323	18310	94	
2554	0	44321	18313	94	
2555	0	44330	18317	94	
2556	0	44328	18316	94	
2557	0	44323	18321	94	
2558	0	44327	18321	94	
2559	0	44333	18321	94	
2560	0	44333	18325	94	
2561	0	44326	18321	94	
2562	0	44324	18319	94	
2563	0	44331	18317	94	
2564	0	44319	18313	94	
2565	0	44315	18315	94	
2566	0	44320	18313	94	
2567	0	44323	18313	94	
2568	0	44322	18315	94	
2569	0	44326	18315	94	
2570	0	44330	18317	94	
2571	0	44332	18317	94	
2572	0	44337	18320	94	
2573	0	44336	18319	94	
2574	0	44350	18326	94	
2575	0	44350	18326	94	
2576	0	44355	18329	94	
2577	0	44358	18324	94	
2578	0	44360	18335	94	
2579	0	44360	18330	94	
2580	0	44362	18334	94	
2581	0	44369	18337	94	
2582	0	44372	18335	94	
2583	0	44374	18338	94	
2584	0	44381	18339	94	
2585	0	44378	18338	94	
2586	0	44377	18341	94	
2587	0	44382	18337	94	
2588	0	44378	18341	94	
2589	0	44371	18340	94	
2590	0	44388	18349	94	
2591	0	44386	18352	94	
2592	0	44393	18354	94	
2593	0	44393	18355	94	
2594	0	44402	18352	94	
2595	0	44396	18350	94	
2596	0	44395	18355	94	
2597	0	44399	18353	94	
2598	0	44399	18358	94	
2599	0	44399	18349	94	
2600	0	44388	18350	94	
2601	0	44376	18344	94	
2602	0	44357	18335	94	
2603	0	44337	18323	94	
2604	0	44307	18305	94	
2605	0	44278	18288	94	
2606	0	44262	18273	94	
2607	0	44233	18266	94	
2608	0	44224	18258	94	
2609	0	44216	18251	94	
2610	0	44222	18248	94	
2611	0	44224	18248	94	
2612	0	44226	18248	94	
2613	0	44219	18247	94	
2614	0	44224	18251	94	
2615	0	44225	18255	94	
2616	0	44236	18257	94	
2617	0	44241	18258	94	
2618	0	44245	18261	94	
2619	0	44251	18263	94	
2620	0	44247	18265	94	
2621	0	44257	18270	94	
2622	0	44263	18270	94	
2623	0	44257	18273	94	
2624	0	44257	18272	94	
2625	0	44260	18274	94	
2626	0	44250	18277	94	
2627	0	44260	18281	94	
2628	0	44253	18283	94	
2629	0	44254	18284	94	
2630	0	44253	18283	94	
2631	0	44263	18283	94	
2632	0	44267	18287	94	
2633	0	44267	18287	94	
2634	0	44267	18292	94	
2635	0	44270	18298	94	
2636	0	44278	18298	94	
2637	0	44281	18300	94	
2638	0	44288	18303	94	
2639	0	44297	18305	94	
2640	0	44304	18307	94	
2641	0	44309	18309	94	
2642	0	44312	18307	94	
2643	0	44316	18313	94	
2644	0	44317	18314	94	
2645	0	44324	18314	94	
2646	0	44325	18323	94	
2647	0	44332	18325	94	
2648	0	44337	18327	94	
2649	0	44341	18330	94	
2650	0	44346	18336	94	
2651	0	44358	18339	94	
2652	0	44358	18343	94	
2653	0	44367	18340	94	
2654	0	44371	18340	94	
2655	0	44374	18342	94	
2656	0	44385	18341	94	
2657	0	44383	18344	94	
2658	0	44388	18341	94	
2659	0	44395	18339	94	
2660	0	44382	18338	94	
2661	0	44386	18338	94	
2662	0	44383	18336	94	
2663	0	44381	18336	94	
2664	0	44382	18337	94	
2665	0	44383	18336	94	
2666	0	44377	18335	94	
2667	0	44368	18334	94	
2668	0	44361	18332	94	
2669	0	44343	18325	94	
2670	0	44329	18315	94	
2671	0	44304	18299	94	
2672	0	44284	18285	94	
2673	0	44253	18270	94	
2674	0	44239	18256	94	
2675	0	44215	18244	94	
2676	0	44204	18237	94	
2677	0	44188	18233	94	
2678	0	44183	18232	94	
2679	0	44185	18230	94	
2680	0	44182	18238	94	
2681	0	44198	18240	94	
2682	0	44205	18249	94	
2683	0	44218	18254	94	
2684	0	44228	18258	94	
2685	0	44233	18264	93	
2686	0	44238	18263	93	
2687	0	44247	18264	93	
2688	0	44254	18266	93	
2689	0	44258	18271	93	
2690	0	44255	18276	93	
2691	0	44264	18277	93	
2692	0	44276	18280	93	
2693	0	44274	18281	93	
2694	0	44273	18279	93	
2695	0	44282	18280	93	
2696	0	44276	18282	93	
2697	0	44284	18279	93	
2698	0	44282	18274	93	
2699	0	44279	18268	93	
2700	0	44273	18262	93	
2701	0	44272	18264	93	
2702	0	44278	18264	93	
2703	0	44282	18260	93	
2704	0	44281	18261	93	
2705	0	44293	18259	93	
2706	0	44298	18259	93	
2707	0	44293	18256	93	
2708	0	44296	18256	93	
2709	0	44302	18257	93	
2710	0	44315	18257	93	
2711	0	44317	18257	93	
2712	0	44322	18253	93	
2713	0	44322	18255	93	
2714	0	44318	18251	93	
2715	0	44322	18246	93	
2716	0	44317	18246	93	
2717	0	44312	18246	93	
2718	0	44316	18245	93	
2719	0	44311	18248	93	
2720	0	44314	18247	93	
2721	0	44312	18246	93	
2722	0	44313	18246	93	
2723	0	44315	18243	93	
2724	0	44308	18239	93	
2725	0	44303	18245	93	
2726	0	44306	18248	93	
2727	0	44313	18248	93	
2728	0	44312	18248	93	
2729	0	44313	18250	93	
2730	0	44310	18254	93	
2731	0	44316	18257	93	
2732	0	44317	18259	93	
2733	0	44313	18256	93	
2734	0	44323	18267	93	
2735	0	44327	18268	93	
2736	0	44316	18264	93	
2737	0	44311	18261	93	
2738	0	44296	18253	93	
2739	0	44272	18242	93	
2740	0	44243	18225	93	
2741	0	44223	18211	93	
2742	0	44207	18198	93	
2743	0	44188	18192	93	
2744	0	44177	18178	93	
2745	0	44160	18172	93	
2746	0	44161	18168	93	
2747	0	44157	18164	93	
2748	0	44168	18164	93	
2749	0	44159	18163	93	
2750	0	44160	18164	93	
2751	0	44174	18163	93	
2752	0	44168	18164	93	
2753	0	44174	18165	93	
2754	0	44172	18168	93	
2755	0	44183	18170	93	
2756	0	44187	18168	93	
2757	0	44185	18173	93	
2758	0	44185	18174	93	
2759	0	44187	18172	93	
2760	0	44194	18174	93	
2761	0	44192	18172	93	
2762	0	44190	18170	93	
2763	0	44186	18172	93	
2764	0	44187	18172	93	
2765	0	44179	18165	93	
2766	0	44178	18161	93	
2767	0	44181	18160	93	
2768	0	44183	18159	93	
2769	0	44177	18161	93	
2770	0	44179	18158	93	
2771	0	44175	18158	93	
2772	0	44180	18158	93	
2773	0	44184	18157	93	
2774	0	44191	18160	93	
2775	0	44190	18163	93	
2776	0	44197	18162	93	
2777	0	44196	18167	93	
2778	0	44206	18168	93	
2779	0	44209	18171	93	
2780	0	44211	18175	93	
2781	0	44208	18175	93	
2782	0	44212	18174	93	
2783	0	44218	18177	93	
2784	0	44224	18181	93	
2785	0	44224	18181	93	
2786	0	44233	18181	93	
2787	0	44232	18179	93	
2788	0	44225	18179	93	
2789	0	44228	18179	93	
2790	0	44228	18179	93	
2791	0	44220	18179	93	
2792	0	44225	18181	93	
2793	0	44227	18183	93	
2794	0	44227	18187	93	
2795	0	44233	18189	93	
2796	0	44234	18196	93	
2797	0	44238	18193	93	
2798	0	44237	18195	93	
2799	0	44247	18198	93	
2800	0	44249	18200	93	
2801	0	44243	18202	93	
2802	0	44244	18198	93	
2803	0	44250	18202	93	
2804	0	44239	18196	93	
2805	0	44228	18188	93	
2806	0	44205	18181	93	
2807	0	44191	18169	93	
2808	0	44164	18153	93	
2809	0	44143	18141	93	
2810	0	44118	18126	93	
2811	0	44106	18113	93	
2812	0	44092	18108	93	
2813	0	44085	18096	93	
2814	0	44080	18096	93	
2815	0	44078	18093	93	
2816	0	44072	18096	93	
2817	0	44078	18097	93	
2818	0	44078	18097	93	
2819	0	44089	18107	93	
2820	0	44096	18110	93	
2821	0	44106	18109	93	
2822	0	44117	18117	93	
2823	0	44119	18119	93	
2824	0	44121	18117	93	
2825	0	44126	18117	93	
2826	0	44123	18119	93	
2827	0	44131	18122	93	
2828	0	44125	18122	93	
2829	0	44125	18123	93	
2830	0	44129	18125	93	
2831	0	44129	18124	93	
2832	0	44125	18125	93	
2833	0	44128	18126	93	
2834	0	44121	18123	93	
2835	0	44131	18123	93	
2836	0	44125	18124	93	
2837	0	44126	18123	93	
2838	0	44130	18126	93	
2839	0	44133	18127	93	
2840	0	44138	18132	93	
2841	0	44154	18131	93	
2842	0	44148	18135	93	
2843	0	44158	18134	93	
2844	0	44154	18132	93	
2845	0	44151	18134	93	
2846	0	44152	18137	93	
2847	0	44152	18137	93	
2848	0	44156	18144	93	
2849	0	44158	18150	93	
2850	0	44168	18153	93	
2851	0	44173	18158	93	
2852	0	44177	18158	93	
2853	0	44183	18157	93	
2854	0	44183	18163	93	
2855	0	44184	18164	93	
2856	0	44182	18165	93	
2857	0	44184	18170	93	
2858	0	44185	18174	93	
2859	0	44194	18174	93	
2860	0	44205	18179	93	
2861	0	44206	18181	93	
2862	0	44207	18181	93	
2863	0	44212	18182	93	
2864	0	44208	18181	93	
2865	0	44214	18186	93	
2866	0	44216	18189	93	
2867	0	44207	18186	93	
2868	0	44220	18188	93	
2869	0	44220	18193	93	
2870	0	44224	18199	93	
2871	0	44226	18203	93	
2872	0	44223	18201	93	
2873	0	44214	18196	93	
2874	0	44198	18186	93	
2875	0	44168	18170	93	
2876	0	44146	18154	93	
2877	0	44113	18134	93	
2878	0	44093	18117	93	
2879	0	44072	18104	93	
2880	0	44058	18095	93	
2881	0	44052	18087	93	
2882	0	44042	18081	93	
2883	0	44043	18080	93	
2884	0	44046	18078	93	
2885	0	44044	18077	93	
2886	0	44046	18073	93	
2887	0	44054	18072	93	
2888	0	44049	18074	93	
2889	0	44045	18072	93	
2890	0	44053	18071	93	
2891	0	44053	18071	93	
2892	0	44062	18075	93	
2893	0	44070	18079	93	
2894	0	44069	18079	93	
2895	0	44073	18082	93	
2896	0	44077	18085	93	
2897	0	44071	18083	93	
2898	0	44071	18084	93	
2899	0	44078	18081	93	
2900	0	44078	18083	93	
2901	0	44083	18089	93	
2902	0	44080	18077	93	
2903	0	44081	18079	93	
2904	0	44076	18077	93	
2905	0	44078	18078	93	
2906	0	44078	18081	93	
2907	0	44083	18081	93	
2908	0	44081	18081	93	
2909	0	44083	18082	93	
2910	0	44085	18086	93	
2911	0	44095	18088	93	
2912	0	44096	18087	93	
2913	0	44103	18087	93	
2914	0	44107	18094	93	
2915	0	44110	18097	93	
2916	0	44122	18101	93	
2917	0	44134	18102	93	
2918	0	44130	18103	93	
2919	0	44138	18104	93	
2920	0	44131	18106	93	
2921	0	44135	18108	93	
2922	0	44138	18108	93	
2923	0	44146	18109	93	
2924	0	44144	18109	93	
2925	0	44146	18109	93	
2926	0	44149	18109	93	
2927	0	44154	18114	93	
2928	0	44155	18117	93	
2929	0	44156	18116	93	
2930	0	44157	18117	93	
2931	0	44153	18119	93	
2932	0	44150	18118	93	
2933	0	44154	18120	93	
2934	0	44156	18122	93	
2935	0	44161	18126	93	
2936	0	44170	18126	93	
2937	0	44166	18135	93	
2938	0	44171	18131	93	
2939	0	44181	18133	93	
2940	0	44185	18135	93	
2941	0	44180	18139	93	
2942	0	44194	18136	93	
2943	0	44193	18143	93	
2944	0	44198	18141	93	
2945	0	44204	18144	93	
2946	0	44210	18144	93	
2947	0	44208	18144	93	
2948	0	44201	18140	93	
2949	0	44183	18133	93	
2950	0	44172	18125	93	
2951	0	44138	18111	93	
2952	0	44113	18094	93	
2953	0	44077	18077	93	
2954	0	44052	18058	93	
2955	0	44031	18049	93	
2956	0	44007	18037	93	
2957	0	43995	18027	93	
2958	0	43987	18021	93	
2959	0	43980	18021	93	
2960	0	43980	18014	93	
2961	0	43986	18015	93	
2962	0	43986	18019	93	
2963	0	43992	18020	93	
2964	0	43990	18019	93	
2965	0	44000	18025	93	
2966	0	44000	18025	93	
2967	0	44001	18028	93	
2968	0	44004	18028	93	
2969	0	44010	18032	93	
2970	0	44016	18035	93	
2971	0	44027	18037	93	
2972	0	44031	18040	93	
2973	0	44025	18043	93	
2974	0	44035	18047	93	
2975	0	44038	18051	93	
2976	0	44040	18048	93	
2977	0	44034	18052	93	
2978	0	44045	18054	93	
2979	0	44041	18052	93	
2980	0	44045	18052	93	
2981	0	44049	18054	93	
2982	0	44050	18054	93	
2983	0	44061	18052	93	
2984	0	44063	18054	93	
2985	0	44071	18056	92	
2986	0	44077	18059	92	
2987	0	44072	18059	92	
2988	0	44078	18059	92	
2989	0	44081	18060	92	
2990	0	44085	18066	92	
2991	0	44089	18063	92	
2992	0	44091	18072	92	
2993	0	44101	18074	92	
2994	0	44121	18078	92	
2995	0	44119	18081	92	
2996	0	44112	18075	92	
2997	0	44116	18082	92	
2998	0	44117	18083	92	
2999	0	44118	18089	92	
3000	0	44117	18087	92	
3001	0	44119	18093	92	
3002	0	44128	18095	92	
3003	0	44129	18100	92	
3004	0	44133	18108	92	
3005	0	44144	18105	92	
3006	0	44146	18108	92	
3007	0	44153	18111	92	
3008	0	44150	18112	92	
3009	0	44146	18112	92	
3010	0	44141	18112	92	
3011	0	44140	18117	92	
3012	0	44131	18121	92	
3013	0	44133	18125	92	
3014	0	44136	18132	92	
3015	0	44141	18140	92	
3016	0	44136	18146	92	
3017	0	44141	18158	92	
3018	0	44150	18171	92	
3019	0	44162	18182	92	
3020	0	44183	18194	92	
3021	0	44202	18206	92	
3022	0	44224	18210	92	
3023	0	44235	18216	92	
3024	0	44232	18214	92	
3025	0	44244	18215	92	
3026	0	44255	18223	92	
3027	0	44267	18227	92	
3028	0	44268	18227	92	
3029	0	44271	18231	92	
3030	0	44277	18233	92	
3031	0	44280	18236	92	
3032	0	44287	18237	92	
3033	0	44291	18241	92	
3034	0	44289	18240	92	
3035	0	44283	18239	92	
3036	0	44274	18228	92	
3037	0	44255	18215	92	
3038	0	44227	18204	92	
3039	0	44190	18181	92	
3040	0	44164	18163	92	
3041	0	44126	18146	92	
3042	0	44095	18131	92	
3043	0	44078	18123	92	
3044	0	44056	18118	92	
3045	0	44055	18117	92	
3046	0	44060	18119	92	
3047	0	44064	18130	92	
3048	0	44087	18137	92	
3049	0	44094	18139	92	
3050	0	44099	18146	92	
3051	0	44111	18149	92	
3052	0	44115	18154	92	
3053	0	44120	18158	92	
3054	0	44129	18162	92	
3055	0	44131	18166	92	
3056	0	44137	18167	92	
3057	0	44135	18176	92	
3058	0	44132	18179	92	
3059	0	44138	18187	92	
3060	0	44142	18195	92	
3061	0	44156	18206	92	
3062	0	44178	18210	92	
3063	0	44188	18219	92	
3064	0	44202	18220	92	
3065	0	44206	18226	92	
3066	0	44206	18220	92	
3067	0	44209	18219	92	
3068	0	44206	18220	92	
3069	0	44214	18225	92	
3070	0	44209	18225	92	
3071	0	44217	18228	92	
3072	0	44223	18233	92	
3073	0	44234	18236	92	
3074	0	44237	18241	92	
3075	0	44251	18244	92	
3076	0	44264	18243	92	
3077	0	44268	18245	92	
3078	0	44269	18248	92	
3079	0	44278	18252	92	
3080	0	44280	18253	92	
3081	0	44283	18258	92	
3082	0	44285	18261	92	
3083	0	44294	18261	92	
3084	0	44292	18268	92	
3085	0	44296	18273	92	
3086	0	44305	18276	92	
3087	0	44309	18279	92	
3088	0	44316	18288	92	
3089	0	44317	18292	92	
3090	0	44326	18295	92	
3091	0	44333	18297	92	
3092	0	44337	18302	92	
3093	0	44343	18308	92	
3094	0	44354	18314	92	
3095	0	44363	18319	92	
3096	0	44367	18324	92	
3097	0	44375	18326	92	
3098	0	44379	18326	92	
3099	0	44382	18330	92	
3100	0	44383	18333	92	
3101	0	44393	18334	92	
3102	0	44402	18337	92	
3103	0	44407	18348	92	
3104	0	44411	18343	92	
3105	0	44414	18350	92	
3106	0	44422	18356	92	
3107	0	44422	18355	92	
3108	0	44433	18361	92	
3109	0	44431	18362	92	
3110	0	44444	18362	92	
3111	0	44449	18366	92	
3112	0	44460	18373	92	
3113	0	44462	18372	92	
3114	0	44479	18376	92	
3115	0	44479	18381	92	
3116	0	44487	18379	92	
3117	0	44503	18379	92	
3118	0	44494	18374	92	
3119	0	44486	18372	92	
3120	0	44468	18365	92	
3121	0	44451	18353	92	
3122	0	44436	18342	92	
3123	0	44418	18329	92	
3124	0	44394	18318	92	
3125	0	44384	18302	92	
3126	0	44371	18293	92	
3127	0	44363	18275	92	
3128	0	44347	18267	92	
3129	0	44336	18253	92	
3130	0	44329	18247	92	
3131	0	44323	18248	92	
3132	0	44327	18244	92	
3133	0	44328	18240	92	
3134	0	44327	18242	92	
3135	0	44318	18240	92	
3136	0	44317	18237	92	
3137	0	44322	18239	92	
3138	0	44316	18241	92	
3139	0	44320	18240	92	
3140	0	44326	18244	92	
3141	0	44331	18243	92	
3142	0	44339	18249	92	
3143	0	44339	18247	92	
3144	0	44331	18248	92	
3145	0	44330	18249	92	
3146	0	44326	18246	92	
3147	0	44322	18254	92	
3148	0	44332	18256	92	
3149	0	44341	18258	92	
3150	0	44336	18258	92	
3151	0	44330	18258	92	
3152	0	44333	18258	92	
3153	0	44332	18257	92	
3154	0	44331	18257	92	
3155	0	44334	18261	92	
3156	0	44337	18264	92	
3157	0	44351	18269	92	
3158	0	44353	18272	92	
3159	0	44369	18274	92	
3160	0	44373	18275	92	
3161	0	44387	18274	92	
3162	0	44390	18276	92	
3163	0	44400	18279	92	
3164	0	44401	18273	92	
3165	0	44401	18274	92	
3166	0	44396	18274	92	
3167	0	44389	18268	92	
3168	0	44390	18263	92	
3169	0	44378	18266	92	
3170	0	44381	18271	92	
3171	0	44382	18271	92	
3172	0	44386	18275	92	
3173	0	44392	18276	92	
3174	0	44401	18281	92	
3175	0	44400	18280	92	
3176	0	44406	18282	92	
3177	0	44414	18282	92	
3178	0	44411	18286	92	
3179	0	44402	18286	92	
3180	0	44399	18286	92	
3181	0	44401	18287	92	
3182	0	44407	18287	92	
3183	0	44411	18293	92	
3184	0	44416	18293	92	
3185	0	44415	18297	92	
3186	0	44421	18298	92	
3187	0	44418	18295	92	
3188	0	44419	18297	92	
3189	0	44429	18296	92	
3190	0	44436	18303	92	
3191	0	44437	18298	92	
3192	0	44445	18299	92	
3193	0	44443	18300	92	
3194	0	44439	18297	92	
3195	0	44446	18301	92	
3196	0	44437	18304	92	
3197	0	44448	18302	92	
3198	0	44452	18302	92	
3199	0	44455	18299	92	
3200	0	44452	18302	92	
3201	0	44438	18295	92	
3202	0	44430	18287	92	
3203	0	44413	18282	92	
3204	0	44399	18272	92	
3205	0	44374	18261	92	
3206	0	44372	18253	92	
3207	0	44350	18244	92	
3208	0	44345	18236	92	
3209	0	44328	18229	92	
3210	0	44321	18220	92	
3211	0	44312	18222	92	
3212	0	44315	18220	92	
3213	0	44311	18224	92	
3214	0	44316	18222	92	
3215	0	44324	18227	92	
3216	0	44326	18228	92	
3217	0	44334	18230	92	
3218	0	44338	18231	92	
3219	0	44342	18237	92	
3220	0	44342	18238	92	
3221	0	44335	18237	92	
3222	0	44340	18237	92	
3223	0	44343	18240	92	
3224	0	44351	18244	92	
3225	0	44345	18241	92	
3226	0	44349	18241	92	
3227	0	44351	18244	92	
3228	0	44337	18240	92	
3229	0	44330	18245	92	
3230	0	44334	18245	92	
3231	0	44328	18245	92	
3232	0	44326	18247	92	
3233	0	44329	18251	92	
3234	0	44330	18251	92	
3235	0	44335	18255	92	
3236	0	44338	18258	92	
3237	0	44340	18255	92	
3238	0	44341	18259	92	
3239	0	44343	18262	92	
3240	0	44341	18263	92	
3241	0	44351	18268	92	
3242	0	44353	18274	92	
3243	0	44357	18271	92	
3244	0	44355	18275	92	
3245	0	44358	18273	92	
3246	0	44363	18280	92	
3247	0	44362	18286	92	
3248	0	44372	18289	92	
3249	0	44384	18293	92	
3250	0	44385	18296	92	
3251	0	44388	18299	92	
3252	0	44375	18298	92	
3253	0	44381	18302	92	
3254	0	44374	18309	92	
3255	0	44385	18307	92	
3256	0	44383	18310	92	
3257	0	44388	18312	92	
3258	0	44400	18316	92	
3259	0	44400	18317	92	
3260	0	44405	18322	92	
3261	0	44411	18322	92	
3262	0	44403	18325	92	
3263	0	44405	18323	92	
3264	0	44404	18324	92	
3265	0	44398	18324	92	
3266	0	44395	18324	92	
3267	0	44398	18327	92	
3268	0	44391	18329	92	
3269	0	44403	18337	92	
3270	0	44408	18342	92	
3271	0	44411	18346	92	
3272	0	44420	18348	92	
3273	0	44419	18350	92	
3274	0	44422	18351	92	
3275	0	44419	18352	92	
3276	0	44419	18354	92	
3277	0	44425	18352	92	
3278	0	44420	18354	92	
3279	0	44407	18352	92	
3280	0	44397	18351	92	
3281	0	44380	18344	92	
3282	0	44374	18338	92	
3283	0	44347	18333	92	
3284	0	44338	18328	92	
3285	0	44326	18327	93	
3286	0	44326	18320	93	
3287	0	44319	18324	93	
3288	0	44319	18321	93	
3289	0	44323	18318	93	
3290	0	44320	18321	93	
3291	0	44316	18321	93	
3292	0	44322	18323	93	
3293	0	44326	18327	93	
3294	0	44326	18335	93	
3295	0	44339	18336	93	
3296	0	44338	18339	93	
3297	0	44347	18346	93	
3298	0	44343	18347	93	
3299	0	44347	18351	93	
3300	0	44348	18357	93	
3301	0	44348	18361	93	
3302	0	44344	18367	93	
3303	0	44349	18372	93	
3304	0	44361	18374	93	
3305	0	44363	18376	93	
3306	0	44373	18384	93	
3307	0	44374	18383	93	
3308	0	44370	18381	93	
3309	0	44369	18380	93	
3310	0	44363	18380	93	
3311	0	44364	18376	93	
3312	0	44364	18376	93	
3313	0	44371	18377	93	
3314	0	44378	18381	93	
3315	0	44385	18379	93	
3316	0	44387	18378	93	
3317	0	44382	18375	93	
3318	0	44383	18377	93	
3319	0	44384	18374	93	
3320	0	44370	18370	93	
3321	0	44375	18373	93	
3322	0	44371	18379	93	
3323	0	44379	18382	93	
3324	0	44382	18384	93	
3325	0	44387	18385	93	
3326	0	44394	18386	93	
3327	0	44393	18388	93	
3328	0	44393	18387	93	
3329	0	44388	18388	93	
3330	0	44390	18387	93	
3331	0	44390	18390	93	
3332	0	44387	18387	93	
3333	0	44390	18389	93	
3334	0	44391	18394	93	
3335	0	44395	18392	93	
3336	0	44397	18393	93	
3337	0	44395	18396	93	
3338	0	44407	18396	93	
3339	0	44411	18397	93	
3340	0	44407	18394	93	
3341	0	44409	18395	93	
3342	0	44400	18391	93	
3343	0	44394	18395	93	
3344	0	44398	18393	93	
3345	0	44404	18393	93	
3346	0	44409	18401	93	
3347	0	44410	18401	93	
3348	0	44412	18400	93	
3349	0	44409	18396	93	
3350	0	44408	18399	93	
3351	0	44398	18394	93	
3352	0	44390	18386	93	
3353	0	44369	18383	93	
3354	0	44355	18379	93	
3355	0	44351	18372	93	
3356	0	44343	18369	93	
3357	0	44331	18359	93	
3358	0	44329	18355	93	
3359	0	44321	18347	93	
3360	0	44324	18346	93	
3361	0	44326	18340	93	
3362	0	44317	18340	93	
3363	0	44322	18341	93	
3364	0	44318	18338	93	
3365	0	44320	18338	93	
3366	0	44322	18339	93	
3367	0	44322	18343	93	
3368	0	44332	18348	93	
3369	0	44334	18349	93	
3370	0	44336	18351	93	
3371	0	44340	18349	93	
3372	0	44340	18349	93	
3373	0	44345	18350	93	
3374	0	44349	18351	93	
3375	0	44340	18348	93	
3376	0	44338	18346	93	
3377	0	44333	18342	93	
3378	0	44316	18339	93	
3379	0	44309	18343	93	
3380	0	44315	18346	93	
3381	0	44318	18343	93	
3382	0	44312	18341	93	
3383	0	44313	18344	93	
3384	0	44315	18345	93	
3385	0	44321	18345	93	
3386	0	44322	18346	93	
3387	0	44333	18351	93	
3388	0	44335	18345	93	
3389	0	44330	18346	93	
3390	0	44340	18347	93	
3391	0	44340	18354	93	
3392	0	44341	18353	93	
3393	0	44342	18350	93	
3394	0	44335	18351	93	
3395	0	44341	18356	93	
3396	0	44339	18358	93	
3397	0	44336	18358	93	
3398	0	44350	18366	93	
3399	0	44348	18364	93	
3400	0	44354	18366	93	
3401	0	44353	18365	93	
3402	0	44354	18369	93	
3403	0	44349	18372	93	
3404	0	44351	18374	93	
3405	0	44355	18376	93	
3406	0	44357	18377	93	
3407	0	44354	18379	93	
3408	0	44360	18381	93	
3409	0	44374	18387	93	
3410	0	44384	18389	93	
3411	0	44380	18389	93	
3412	0	44387	18383	93	
3413	0	44379	18384	93	
3414	0	44381	18385	93	
3415	0	44368	18380	93	
3416	0	44362	18380	93	
3417	0	44350	18376	93	
3418	0	44338	18372	93	
3419	0	44318	18371	93	
3420	0	44298	18367	93	
3421	0	44286	18363	93	
3422	0	44274	18362	93	
3423	0	44263	18359	93	
3424	0	44259	18361	93	
3425	0	44256	18365	93	
3426	0	44262	18369	93	
3427	0	44265	18370	93	
3428	0	44282	18376	93	
3429	0	44278	18369	93	
3430	0	44280	18368	93	
3431	0	44279	18366	93	
3432	0	44276	18371	93	
3433	0	44273	18369	93	
3434	0	44275	18374	93	
3435	0	44284	18380	93	
3436	0	44295	18387	93	
3437	0	44299	18385	93	
3438	0	44297	18386	93	
3439	0	44296	18384	93	
3440	0	44302	18386	93	
3441	0	44294	18381	93	
3442	0	44300	18384	93	
3443	0	44301	18386	93	
3444	0	44296	18387	93	
3445	0	44305	18387	93	
3446	0	44301	18387	93	
3447	0	44302	18384	93	
3448	0	44298	18385	93	
3449	0	44300	18384	93	
3450	0	44297	18379	93	
3451	0	44289	18378	93	
3452	0	44288	18380	93	
3453	0	44291	18375	93	
3454	0	44300	18378	93	
3455	0	44305	18385	93	
3456	0	44309	18381	93	
3457	0	44307	18380	93	
3458	0	44309	18380	93	
3459	0	44314	18380	93	
3460	0	44309	18380	93	
3461	0	44310	18376	93	
3462	0	44311	18380	93	
3463	0	44311	18378	93	
3464	0	44309	18379	93	
3465	0	44310	18380	93	
3466	0	44321	18382	93	
3467	0	44313	18381	93	
3468	0	44310	18382	93	
3469	0	44309	18384	93	
3470	0	44310	18386	93	
3471	0	44320	18383	93	
3472	0	44326	18386	93	
3473	0	44323	18391	93	
3474	0	44327	18387	93	
3475	0	44329	18392	93	
3476	0	44326	18387	93	
3477	0	44322	18387	93	
3478	0	44319	18385	93	
3479	0	44315	18385	93	
3480	0	44315	18384	93	
3481	0	44310	18389	93	
3482	0	44324	18395	93	
3483	0	44325	18398	93	
3484	0	44328	18399	93	
3485	0	44333	18397	93	
3486	0	44329	18397	93	
3487	0	44323	18394	93	
3488	0	44310	18390	93	
3489	0	44294	18384	93	
3490	0	44282	18373	93	
3491	0	44270	18370	93	
3492	0	44251	18360	93	
3493	0	44240	18358	93	
3494	0	44235	18351	93	
3495	0	44231	18353	93	
3496	0	44231	18350	93	
3497	0	44236	18354	93	
3498	0	44233	18353	93	
3499	0	44229	18352	93	
3500	0	44236	18352	93	
3501	0	44232	18355	93	
3502	0	44231	18357	93	
3503	0	44238	18356	93	
3504	0	44239	18360	93	
3505	0	44246	18362	93	
3506	0	44249	18362	93	
3507	0	44249	18363	93	
3508	0	44254	18365	93	
3509	0	44245	18357	93	
3510	0	44238	18356	93	
3511	0	44235	18357	93	
3512	0	44233	18359	93	
3513	0	44227	18358	93	
3514	0	44215	18361	93	
3515	0	44216	18367	93	
3516	0	44205	18363	93	
3517	0	44210	18366	93	
3518	0	44207	18372	93	
3519	0	44219	18378	93	
3520	0	44226	18385	93	
3521	0	44237	18391	93	
3522	0	44245	18389	93	
3523	0	44247	18393	93	
3524	0	44252	18391	93	
3525	0	44250	18391	93	
3526	0	44250	18396	93	
3527	0	44249	18395	93	
3528	0	44248	18399	93	
3529	0	44251	18406	93	
3530	0	44262	18406	93	
3531	0	44266	18411	93	
3532	0	44260	18410	93	
3533	0	44259	18413	93	
3534	0	44267	18418	93	
3535	0	44269	18413	93	
3536	0	44276	18420	93	
3537	0	44273	18417	93	
3538	0	44274	18421	93	
3539	0	44272	18429	93	
3540	0	44277	18426	93	
3541	0	44280	18430	93	
3542	0	44281	18435	93	
3543	0	44282	18437	93	
3544	0	44279	18440	93	
3545	0	44280	18439	93	
3546	0	44280	18442	93	
3547	0	44290	18446	93	
3548	0	44290	18453	93	
3549	0	44295	18455	93	
3550	0	44299	18460	93	
3551	0	44305	18469	93	
3552	0	44307	18467	93	
3553	0	44308	18474	93	
3554	0	44310	18472	93	
3555	0	44311	18480	93	
3556	0	44320	18482	93	
3557	0	44321	18479	93	
3558	0	44310	18480	93	
3559	0	44301	18479	93	
3560	0	44293	18476	93	
3561	0	44280	18467	93	
3562	0	44270	18460	93	
3563	0	44253	18459	93	
3564	0	44245	18450	93	
3565	0	44236	18447	93	
3566	0	44233	18444	93	
3567	0	44230	18444	93	
3568	0	44234	18444	93	
3569	0	44231	18445	93	
3570	0	44238	18443	93	
3571	0	44233	18447	93	
3572	0	44235	18442	93	
3573	0	44233	18441	93	
3574	0	44224	18442	93	
3575	0	44229	18445	93	
3576	0	44230	18441	93	
3577	0	44228	18449	93	
3578	0	44234	18450	93	
3579	0	44242	18452	93	
3580	0	44251	18452	93	
3581	0	44253	18453	93	
3582	0	44250	18448	93	
3583	0	44254	18442	93	
3584	0	44255	18438	93	
3585	0	44236	18437	84	
3586	0	44232	18434	84	
3587	0	44218	18429	84	
3588	0	44213	18425	84	
3589	0	44212	18424	84	
3590	0	44212	18424	84	
3591	0	44216	18424	84	
3592	0	44215	18428	84	
3593	0	44224	18423	84	
3594	0	44226	18426	84	
3595	0	44220	18425	84	
3596	0	44212	18422	84	
3597	0	44217	18424	84	
3598	0	44222	18423	84	
3599	0	44216	18422	84	
3600	0	44215	18421	84	
3601	0	44212	18423	84	
3602	0	44213	18423	84	
3603	0	44216	18428	84	
3604	0	44222	18425	84	
3605	0	44222	18431	84	
3606	0	44219	18425	84	
3607	0	44221	18432	84	
3608	0	44225	18436	84	
3609	0	44228	18433	84	
3610	0	44224	18430	84	
3611	0	44227	18434	84	
3612	0	44227	18431	84	
3613	0	44228	18435	84	
3614	0	44237	18435	84	
3615	0	44238	18438	84	
3616	0	44232	18434	84	
3617	0	44234	18435	84	
3618	0	44231	18436	84	
3619	0	44224	18434	84	
3620	0	44228	18432	84	
3621	0	44226	18429	84	
3622	0	44229	18437	84	
3623	0	44237	18439	84	
3624	0	44230	18440	84	
3625	0	44243	18436	84	
3626	0	44243	18439	84	
3627	0	44240	18441	84	
3628	0	44240	18442	84	
3629	0	44238	18446	84	
3630	0	44232	18446	84	
3631	0	44245	18446	84	
3632	0	44244	18446	84	
3633	0	44238	18449	84	
3634	0	44240	18446	84	
3635	0	44231	18441	84	
3636	0	44213	18438	84	
3637	0	44203	18425	84	
3638	0	44184	18422	84	
3639	0	44172	18410	84	
3640	0	44152	18406	84	
3641	0	44145	18399	84	
3642	0	44145	18395	84	
3643	0	44147	18394	84	
3644	0	44146	18389	84	
3645	0	44141	18386	84	
3646	0	44131	18387	84	
3647	0	44128	18381	84	
3648	0	44133	18381	84	
3649	0	44126	18383	84	
3650	0	44126	18386	84	
3651	0	44133	18385	84	
3652	0	44134	18388	84	
3653	0	44144	18392	84	
3654	0	44150	18390	84	
3655	0	44150	18391	84	
3656	0	44144	18384	84	
3657	0	44142	18388	84	
3658	0	44138	18385	84	
3659	0	44141	18385	84	
3660	0	44144	18389	84	
3661	0	44145	18390	84	
3662	0	44146	18391	84	
3663	0	44149	18390	84	
3664	0	44148	18388	84	
3665	0	44143	18389	84	
3666	0	44145	18385	84	
3667	0	44147	18384	84	
3668	0	44144	18384	84	
3669	0	44148	18380	84	
3670	0	44143	18379	84	
3671	0	44148	18384	84	
3672	0	44148	18388	84	
3673	0	44158	18388	84	
3674	0	44156	18388	84	
3675	0	44161	18390	84	
3676	0	44155	18390	84	
3677	0	44162	18393	84	
3678	0	44161	18396	84	
3679	0	44168	18397	84	
3680	0	44174	18399	84	
3681	0	44168	18401	84	
3682	0	44173	18402	84	
3683	0	44175	18406	84	
3684	0	44182	18406	84	
3685	0	44183	18412	84	
3686	0	44195	18414	84	
3687	0	44198	18418	84	
3688	0	44200	18419	84	
3689	0	44207	18418	84	
3690	0	44200	18415	84	
3691	0	44196	18416	84	
3692	0	44200	18417	84	
3693	0	44200	18419	84	
3694	0	44199	18418	84	
3695	0	44204	18423	84	
3696	0	44203	18427	84	
3697	0	44208	18429	84	
3698	0	44209	18433	84	
3699	0	44220	18433	84	
3700	0	44214	18432	84	
3701	0	44220	18433	84	
3702	0	44217	18438	84	
3703	0	44224	18440	84	
3704	0	44226	18440	84	
3705	0	44221	18445	84	
3706	0	44230	18445	84	
3707	0	44224	18449	84	
3708	0	44234	18452	84	
3709	0	44233	18454	84	
3710	0	44243	18458	84	
3711	0	44249	18461	84	
3712	0	44257	18470	84	
3713	0	44258	18467	84	
3714	0	44255	18470	84	
3715	0	44251	18468	84	
3716	0	44237	18468	84	
3717	0	44227	18461	84	
3718	0	44215	18454	84	
3719	0	44198	18444	84	
3720	0	44188	18435	84	
3721	0	44169	18426	84	
3722	0	44157	18416	84	
3723	0	44138	18409	84	
3724	0	44137	18403	84	
3725	0	44136	18404	84	
3726	0	44146	18406	84	
3727	0	44152	18403	84	
3728	0	44151	18404	84	
3729	0	44156	18406	84	
3730	0	44158	18401	84	
3731	0	44161	18402	84	
3732	0	44159	18397	84	
3733	0	44150	18398	84	
3734	0	44150	18396	84	
3735	0	44156	18396	84	
3736	0	44150	18393	84	
3737	0	44155	18393	84	
3738	0	44158	18395	84	
3739	0	44154	18393	84	
3740	0	44156	18395	84	
3741	0	44154	18398	84	
3742	0	44156	18393	84	
3743	0	44156	18394	84	
3744	0	44145	18395	84	
3745	0	44149	18395	84	
3746	0	44150	18396	84	
3747	0	44144	18393	84	
3748	0	44149	18396	84	
3749	0	44140	18397	84	
3750	0	44145	18398	84	
3751	0	44160	18402	84	
3752	0	44176	18408	84	
3753	0	44177	18408	84	
3754	0	44177	18406	84	
3755	0	44174	18410	84	
3756	0	44173	18409	84	
3757	0	44182	18410	84	
3758	0	44183	18414	84	
3759	0	44187	18414	84	
3760	0	44193	18421	84	
3761	0	44193	18425	84	
3762	0	44204	18425	84	
3763	0	44216	18428	84	
3764	0	44218	18427	84	
3765	0	44223	18432	84	
3766	0	44223	18433	84	
3767	0	44229	18433	84	
3768	0	44222	18428	84	
3769	0	44223	18434	84	
3770	0	44225	18432	84	
3771	0	44234	18435	84	
3772	0	44241	18436	84	
3773	0	44246	18440	84	
3774	0	44240	18438	84	
3775	0	44246	18442	84	
3776	0	44243	18443	84	
3777	0	44254	18448	84	
3778	0	44257	18445	84	
3779	0	44259	18443	84	
3780	0	44256	18448	84	
3781	0	44256	18447	84	
3782	0	44250	18450	84	
3783	0	44247	18447	84	
3784	0	44254	18455	84	
3785	0	44257	18455	84	
3786	0	44256	18466	84	
3787	0	44271	18465	84	
3788	0	44277	18469	84	
3789	0	44292	18475	84	
3790	0	44302	18477	84	
3791	0	44293	18470	84	
3792	0	44290	18469	84	
3793	0	44280	18466	84	
3794	0	44273	18471	84	
3795	0	44278	18472	84	
3796	0	44276	18475	84	
3797	0	44279	18477	84	
3798	0	44278	18478	84	
3799	0	44267	18473	84	
3800	0	44257	18462	84	
3801	0	44241	18449	84	
3802	0	44221	18438	84	
3803	0	44200	18424	84	
3804	0	44187	18409	84	
3805	0	44165	18402	84	
3806	0	44152	18393	84	
3807	0	44134	18387	84	
3808	0	44137	18380	84	
3809	0	44129	18381	84	
3810	0	44130	18379	84	
3811	0	44138	18386	84	
3812	0	44141	18381	84	
3813	0	44150	18385	84	
3814	0	44153	18387	84	
3815	0	44169	18384	84	
3816	0	44165	18385	84	
3817	0	44158	18377	84	
3818	0	44151	18369	84	
3819	0	44142	18370	84	
3820	0	44139	18364	84	
3821	0	44138	18365	84	
3822	0	44135	18365	84	
3823	0	44134	18369	84	
3824	0	44143	18369	84	
3825	0	44144	18362	84	
3826	0	44140	18362	84	
3827	0	44130	18355	84	
3828	0	44132	18352	84	
3829	0	44132	18353	84	
3830	0	44134	18348	84	
3831	0	44132	18341	84	
3832	0	44128	18336	84	
3833	0	44122	18335	84	
3834	0	44118	18334	84	
3835	0	44119	18332	84	
3836	0	44122	18331	84	
3837	0	44120	18330	84	
3838	0	44130	18333	84	
3839	0	44130	18332	84	
3840	0	44124	18332	84	
3841	0	44137	18333	84	
3842	0	44137	18333	84	
3843	0	44138	18333	84	
3844	0	44141	18330	84	
3845	0	44135	18328	84	
3846	0	44135	18330	84	
3847	0	44144	18328	84	
3848	0	44139	18323	84	
3849	0	44143	18323	84	
3850	0	44132	18316	84	
3851	0	44139	18321	84	
3852	0	44129	18317	84	
3853	0	44129	18316	84	
3854	0	44126	18318	84	
3855	0	44124	18315	84	
3856	0	44129	18317	84	
3857	0	44128	18315	84	
3858	0	44130	18315	84	
3859	0	44131	18314	84	
3860	0	44124	18314	84	
3861	0	44125	18317	84	
3862	0	44138	18315	84	
3863	0	44144	18319	84	
3864	0	44139	18316	84	
3865	0	44142	18318	84	
3866	0	44141	18312	84	
3867	0	44148	18314	84	
3868	0	44146	18312	84	
3869	0	44143	18318	84	
3870	0	44136	18317	84	
3871	0	44138	18316	84	
3872	0	44127	18315	84	
3873	0	44122	18311	84	
3874	0	44100	18302	84	
3875	0	44094	18297	84	
3876	0	44079	18290	84	
3877	0	44063	18283	84	
3878	0	44052	18272	84	
3879	0	44042	18264	84	
3880	0	44026	18257	84	
3881	0	44019	18251	84	
3882	0	44009	18249	84	
3883	0	44009	18251	84	
3884	0	44013	18250	84	
3885	0	44018	18252	91	
3886	0	44031	18256	91	
3887	0	44035	18263	91	
3888	0	44037	18263	91	
3889	0	44046	18263	91	
3890	0	44057	18264	91	
3891	0	44053	18266	91	
3892	0	44060	18261	91	
3893	0	44059	18269	91	
3894	0	44058	18271	91	
3895	0	44056	18272	91	
3896	0	44066	18273	91	
3897	0	44060	18274	91	
3898	0	44070	18276	91	
3899	0	44068	18275	91	
3900	0	44060	18277	91	
3901	0	44064	18279	91	
3902	0	44066	18276	91	
3903	0	44055	18272	91	
3904	0	44056	18273	91	
3905	0	44062	18277	91	
3906	0	44070	18276	91	
3907	0	44069	18272	91	
3908	0	44073	18274	91	
3909	0	44074	18274	91	
3910	0	44079	18274	91	
3911	0	44084	18277	91	
3912	0	44082	18278	91	
3913	0	44083	18283	91	
3914	0	44090	18282	91	
3915	0	44095	18288	91	
3916	0	44102	18294	91	
3917	0	44105	18292	91	
3918	0	44111	18298	91	
3919	0	44120	18300	91	
3920	0	44119	18300	91	
3921	0	44131	18303	91	
3922	0	44129	18302	91	
3923	0	44133	18309	91	
3924	0	44143	18310	91	
3925	0	44147	18308	91	
3926	0	44148	18312	91	
3927	0	44146	18307	91	
3928	0	44150	18308	91	
3929	0	44154	18311	91	
3930	0	44155	18312	91	
3931	0	44160	18313	91	
3932	0	44162	18316	91	
3933	0	44165	18312	91	
3934	0	44168	18314	91	
3935	0	44171	18313	91	
3936	0	44172	18314	91	
3937	0	44169	18314	91	
3938	0	44166	18312	91	
3939	0	44169	18313	91	
3940	0	44167	18318	91	
3941	0	44162	18317	91	
3942	0	44166	18322	91	
3943	0	44166	18326	91	
3944	0	44160	18321	91	
3945	0	44152	18314	91	
3946	0	44130	18299	91	
3947	0	44121	18292	91	
3948	0	44098	18283	91	
3949	0	44075	18272	91	
3950	0	44062	18265	91	
3951	0	44051	18260	91	
3952	0	44048	18250	91	
3953	0	44043	18250	91	
3954	0	44046	18253	91	
3955	0	44056	18257	91	
3956	0	44063	18259	91	
3957	0	44061	18263	91	
3958	0	44071	18267	91	
3959	0	44073	18267	91	
3960	0	44081	18271	91	
3961	0	44080	18271	91	
3962	0	44083	18277	91	
3963	0	44084	18277	91	
3964	0	44089	18280	91	
3965	0	44102	18284	91	
3966	0	44111	18287	91	
3967	0	44118	18294	91	
3968	0	44119	18287	91	
3969	0	44116	18287	91	
3970	0	44107	18286	91	
3971	0	44114	18287	91	
3972	0	44103	18287	91	
3973	0	44111	18288	91	
3974	0	44123	18291	91	
3975	0	44124	18291	91	
3976	0	44129	18293	91	
3977	0	44134	18292	91	
3978	0	44132	18295	91	
3979	0	44134	18292	91	
3980	0	44141	18297	91	
3981	0	44149	18295	91	
3982	0	44147	18295	91	
3983	0	44145	18296	91	
3984	0	44152	18299	91	
3985	0	44155	18300	91	
3986	0	44153	18304	91	
3987	0	44160	18307	91	
3988	0	44158	18307	91	
3989	0	44164	18314	91	
3990	0	44179	18323	91	
3991	0	44190	18327	91	
3992	0	44200	18334	91	
3993	0	44200	18330	91	
3994	0	44203	18337	91	
3995	0	44212	18336	91	
3996	0	44209	18342	91	
3997	0	44211	18345	91	
3998	0	44220	18346	91	
3999	0	44224	18349	91	
4000	0	44226	18354	91	
4001	0	44233	18354	91	
4002	0	44236	18353	91	
4003	0	44240	18354	91	
4004	0	44246	18356	91	
4005	0	44244	18355	91	
4006	0	44243	18358	91	
4007	0	44248	18359	91	
4008	0	44245	18368	91	
4009	0	44246	18368	91	
4010	0	44255	18371	91	
4011	0	44266	18373	91	
4012	0	44276	18380	91	
4013	0	44278	18385	91	
4014	0	44291	18386	91	
4015	0	44286	18385	91	
4016	0	44278	18379	91	
4017	0	44275	18379	91	
4018	0	44254	18364	91	
4019	0	44229	18353	91	
4020	0	44207	18342	91	
4021	0	44176	18324	91	
4022	0	44163	18309	91	
4023	0	44146	18290	91	
4024	0	44126	18279	91	
4025	0	44122	18274	91	
4026	0	44112	18266	91	
4027	0	44112	18265	91	
4028	0	44112	18264	91	
4029	0	44107	18264	91	
4030	0	44117	18265	91	
4031	0	44117	18266	91	
4032	0	44111	18267	91	
4033	0	44121	18269	91	
4034	0	44126	18271	91	
4035	0	44125	18269	91	
4036	0	44125	18272	91	
4037	0	44124	18271	91	
4038	0	44138	18272	91	
4039	0	44136	18272	91	
4040	0	44142	18272	91	
4041	0	44147	18273	91	
4042	0	44155	18272	91	
4043	0	44146	18274	91	
4044	0	44146	18275	91	
4045	0	44140	18274	91	
4046	0	44145	18272	91	
4047	0	44136	18270	91	
4048	0	44141	18271	91	
4049	0	44139	18271	91	
4050	0	44137	18271	91	
4051	0	44140	18270	91	
4052	0	44142	18274	91	
4053	0	44152	18273	91	
4054	0	44153	18275	91	
4055	0	44150	18277	91	
4056	0	44159	18283	91	
4057	0	44161	18286	91	
4058	0	44161	18289	91	
4059	0	44170	18291	91	
4060	0	44186	18300	91	
4061	0	44194	18304	91	
4062	0	44195	18306	91	
4063	0	44203	18310	91	
4064	0	44214	18309	91	
4065	0	44206	18315	91	
4066	0	44211	18314	91	
4067	0	44221	18319	91	
4068	0	44224	18321	91	
4069	0	44233	18328	91	
4070	0	44237	18332	91	
4071	0	44244	18335	91	
4072	0	44243	18335	91	
4073	0	44250	18337	91	
4074	0	44248	18339	91	
4075	0	44257	18342	91	
4076	0	44250	18343	91	
4077	0	44252	18345	91	
4078	0	44259	18352	91	
4079	0	44256	18352	91	
4080	0	44270	18358	91	
4081	0	44268	18358	91	
4082	0	44269	18361	91	
4083	0	44284	18367	91	
4084	0	44293	18374	91	
4085	0	44295	18376	91	
4086	0	44301	18379	91	
4087	0	44308	18381	91	
4088	0	44313	18383	91	
4089	0	44320	18385	91	
4090	0	44320	18392	91	
4091	0	44315	18392	91	
4092	0	44309	18390	91	
4093	0	44306	18392	91	
4094	0	44295	18387	91	
4095	0	44284	18380	91	
4096	0	44266	18369	91	
4097	0	44245	18355	91	
4098	0	44215	18336	91	
4099	0	44198	18324	91	
4100	0	44174	18313	91	
4101	0	44167	18306	91	
4102	0	44159	18300	91	
4103	0	44159	18297	91	
4104	0	44154	18303	91	
4105	0	44170	18303	91	
4106	0	44168	18304	91	
4107	0	44168	18310	91	
4108	0	44172	18311	91	
4109	0	44182	18315	91	
4110	0	44180	18318	91	
4111	0	44191	18319	91	
4112	0	44188	18320	91	
4113	0	44198	18319	91	
4114	0	44200	18328	91	
4115	0	44215	18330	91	
4116	0	44216	18336	91	
4117	0	44225	18334	91	
4118	0	44227	18337	91	
4119	0	44225	18338	91	
4120	0	44228	18341	91	
4121	0	44224	18337	91	
4122	0	44229	18341	91	
4123	0	44224	18338	91	
4124	0	44220	18341	91	
4125	0	44222	18342	91	
4126	0	44218	18340	91	
4127	0	44223	18343	91	
4128	0	44226	18346	91	
4129	0	44227	18346	91	
4130	0	44229	18351	91	
4131	0	44236	18358	91	
4132	0	44244	18360	91	
4133	0	44250	18366	91	
4134	0	44271	18376	91	
4135	0	44274	18383	91	
4136	0	44283	18382	91	
4137	0	44288	18382	91	
4138	0	44293	18385	91	
4139	0	44297	18388	91	
4140	0	44302	18391	91	
4141	0	44303	18390	91	
4142	0	44306	18396	91	
4143	0	44315	18401	91	
4144	0	44316	18406	91	
4145	0	44332	18409	91	
4146	0	44340	18408	91	
4147	0	44342	18412	91	
4148	0	44342	18410	91	
4149	0	44342	18408	91	
4150	0	44347	18410	91	
4151	0	44344	18413	91	
4152	0	44346	18415	91	
4153	0	44352	18415	91	
4154	0	44351	18414	91	
4155	0	44356	18418	91	
4156	0	44361	18421	91	
4157	0	44359	18419	91	
4158	0	44360	18420	91	
4159	0	44367	18423	91	
4160	0	44361	18429	91	
4161	0	44367	18431	91	
4162	0	44381	18433	91	
4163	0	44385	18440	91	
4164	0	44386	18442	91	
4165	0	44400	18444	91	
4166	0	44395	18448	91	
4167	0	44401	18451	91	
4168	0	44394	18448	91	
4169	0	44392	18445	91	
4170	0	44381	18440	91	
4171	0	44362	18429	91	
4172	0	44340	18415	91	
4173	0	44317	18399	91	
4174	0	44293	18386	91	
4175	0	44274	18375	91	
4176	0	44260	18367	91	
4177	0	44255	18362	91	
4178	0	44252	18359	91	
4179	0	44256	18360	91	
4180	0	44262	18360	91	
4181	0	44267	18363	91	
4182	0	44282	18362	91	
4183	0	44278	18366	91	
4184	0	44274	18362	91	
4185	0	44284	18359	92	
4186	0	44275	18362	92	
4187	0	44282	18365	92	
4188	0	44280	18369	92	
4189	0	44283	18367	92	
4190	0	44296	18376	92	
4191	0	44305	18376	92	
4192	0	44307	18373	92	
4193	0	44307	18375	92	
4194	0	44306	18375	92	
4195	0	44309	18374	92	
4196	0	44311	18371	92	
4197	0	44297	18372	92	
4198	0	44300	18368	92	
4199	0	44294	18367	92	
4200	0	44295	18365	92	
4201	0	44295	18366	92	
4202	0	44296	18364	92	
4203	0	44307	18371	92	
4204	0	44310	18367	92	
4205	0	44310	18366	92	
4206	0	44310	18365	92	
4207	0	44309	18363	92	
4208	0	44304	18368	92	
4209	0	44313	18364	92	
4210	0	44317	18369	92	
4211	0	44321	18375	92	
4212	0	44320	18380	92	
4213	0	44329	18380	92	
4214	0	44339	18387	92	
4215	0	44341	18386	92	
4216	0	44341	18389	92	
4217	0	44342	18387	92	
4218	0	44354	18396	92	
4219	0	44357	18391	92	
4220	0	44364	18397	92	
4221	0	44370	18402	92	
4222	0	44376	18402	92	
4223	0	44378	18405	92	
4224	0	44373	18407	92	
4225	0	44373	18405	92	
4226	0	44377	18407	92	
4227	0	44375	18411	92	
4228	0	44380	18412	92	
4229	0	44374	18416	92	
4230	0	44381	18418	92	
4231	0	44378	18423	92	
4232	0	44384	18425	92	
4233	0	44397	18433	92	
4234	0	44405	18436	92	
4235	0	44412	18437	92	
4236	0	44413	18441	92	
4237	0	44421	18443	92	
4238	0	44427	18449	92	
4239	0	44421	18443	92	
4240	0	44433	18448	92	
4241	0	44433	18452	92	
4242	0	44430	18453	92	
4243	0	44438	18459	92	
4244	0	44429	18458	92	
4245	0	44434	18459	92	
4246	0	44442	18463	92	
4247	0	44433	18460	92	
4248	0	44417	18452	92	
4249	0	44399	18436	92	
4250	0	44374	18425	92	
4251	0	44353	18411	92	
4252	0	44338	18398	92	
4253	0	44322	18388	92	
4254	0	44302	18377	92	
4255	0	44290	18367	92	
4256	0	44281	18364	92	
4257	0	44278	18368	92	
4258	0	44288	18370	92	
4259	0	44290	18371	92	
4260	0	44301	18376	92	
4261	0	44310	18376	92	
4262	0	44308	18375	92	
4263	0	44313	18376	92	
4264	0	44315	18372	92	
4265	0	44312	18370	92	
4266	0	44314	18372	92	
4267	0	44312	18372	92	
4268	0	44317	18375	92	
4269	0	44323	18371	92	
4270	0	44314	18375	92	
4271	0	44319	18378	92	
4272	0	44329	18371	92	
4273	0	44315	18379	92	
4274	0	44315	18375	92	
4275	0	44313	18371	92	
4276	0	44305	18373	92	
4277	0	44298	18374	92	
4278	0	44308	18374	92	
4279	0	44297	18375	92	
4280	0	44304	18382	92	
4281	0	44313	18382	92	
4282	0	44315	18387	92	
4283	0	44323	18385	92	
4284	0	44330	18389	92	
4285	0	44334	18392	92	
4286	0	44344	18390	92	
4287	0	44346	18396	92	
4288	0	44350	18395	92	
4289	0	44345	18401	92	
4290	0	44341	18398	92	
4291	0	44345	18401	92	
4292	0	44349	18408	92	
4293	0	44356	18411	92	
4294	0	44375	18419	92	
4295	0	44383	18422	92	
4296	0	44386	18421	92	
4297	0	44392	18424	92	
4298	0	44392	18428	92	
4299	0	44393	18427	92	
4300	0	44394	18425	92	
4301	0	44393	18429	92	
4302	0	44386	18426	92	
4303	0	44384	18425	92	
4304	0	44390	18436	92	
4305	0	44395	18433	92	
4306	0	44397	18441	92	
4307	0	44411	18446	92	
4308	0	44412	18446	92	
4309	0	44419	18447	92	
4310	0	44420	18449	92	
4311	0	44416	18446	92	
4312	0	44420	18449	92	
4313	0	44413	18447	92	
4314	0	44419	18454	92	
4315	0	44416	18455	92	
4316	0	44416	18455	92	
4317	0	44421	18465	92	
4318	0	44422	18471	92	
4319	0	44439	18478	92	
4320	0	44453	18483	92	
4321	0	44455	18489	92	
4322	0	44467	18493	92	
4323	0	44465	18495	92	
4324	0	44467	18494	92	
4325	0	44468	18496	92	
4326	0	44459	18494	92	
4327	0	44435	18488	92	
4328	0	44425	18480	92	
4329	0	44409	18471	92	
4330	0	44395	18460	92	
4331	0	44382	18449	92	
4332	0	44370	18436	92	
4333	0	44351	18425	92	
4334	0	44334	18414	92	
4335	0	44333	18412	92	
4336	0	44330	18407	92	
4337	0	44329	18403	92	
4338	0	44332	18403	92	
4339	0	44331	18401	92	
4340	0	44327	18402	92	
4341	0	44335	18400	92	
4342	0	44343	18404	92	
4343	0	44343	18406	92	
4344	0	44348	18405	92	
4345	0	44350	18403	92	
4346	0	44356	18402	92	
4347	0	44349	18405	92	
4348	0	44350	18401	92	
4349	0	44341	18398	92	
4350	0	44339	18399	92	
4351	0	44339	18403	92	
4352	0	44348	18401	92	
4353	0	44355	18403	92	
4354	0	44357	18402	92	
4355	0	44348	18402	92	
4356	0	44346	18397	92	
4357	0	44342	18389	92	
4358	0	44342	18393	92	
4359	0	44341	18396	92	
4360	0	44343	18392	92	
4361	0	44338	18391	92	
4362	0	44339	18389	92	
4363	0	44340	18390	92	
4364	0	44343	18391	92	
4365	0	44349	18393	92	
4366	0	44355	18396	92	
4367	0	44360	18400	92	
4368	0	44360	18402	92	
4369	0	44366	18401	92	
4370	0	44368	18404	92	
4371	0	44374	18405	92	
4372	0	44369	18408	92	
4373	0	44384	18411	92	
4374	0	44388	18414	92	
4375	0	44398	18416	92	
4376	0	44392	18421	92	
4377	0	44404	18414	92	
4378	0	44399	18417	92	
4379	0	44400	18416	92	
4380	0	44404	18417	92	
4381	0	44406	18416	92	
4382	0	44406	18418	92	
4383	0	44407	18417	92	
4384	0	44405	18420	92	
4385	0	44408	18422	92	
4386	0	44411	18421	92	
4387	0	44419	18424	92	
4388	0	44423	18425	92	
4389	0	44426	18421	92	
4390	0	44430	18424	92	
4391	0	44426	18424	92	
4392	0	44420	18422	92	
4393	0	44425	18425	92	
4394	0	44425	18421	92	
4395	0	44431	18429	92	
4396	0	44432	18430	92	
4397	0	44429	18430	92	
4398	0	44437	18435	92	
4399	0	44445	18431	92	
4400	0	44443	18435	92	
4401	0	44440	18436	92	
4402	0	44433	18441	92	
4403	0	44438	18443	92	
4404	0	44434	18440	92	
4405	0	44431	18437	92	
4406	0	44416	18432	92	
4407	0	44399	18422	92	
4408	0	44383	18407	92	
4409	0	44356	18393	92	
4410	0	44337	18380	92	
4411	0	44312	18367	92	
4412	0	44294	18352	92	
4413	0	44284	18354	92	
4414	0	44283	18351	92	
4415	0	44282	18351	92	
4416	0	44294	18353	92	
4417	0	44298	18355	92	
4418	0	44298	18360	92	
4419	0	44303	18358	92	
4420	0	44312	18361	92	
4421	0	44314	18366	92	
4422	0	44323	18370	92	
4423	0	44333	18375	92	
4424	0	44337	18376	92	
4425	0	44344	18378	92	
4426	0	44343	18380	92	
4427	0	44348	18378	92	
4428	0	44334	18377	92	
4429	0	44337	18383	92	
4430	0	44333	18381	92	
4431	0	44334	18383	92	
4432	0	44340	18382	92	
4433	0	44345	18383	92	
4434	0	44344	18383	92	
4435	0	44349	18381	92	
4436	0	44341	18380	92	
4437	0	44341	18378	92	
4438	0	44347	18378	92	
4439	0	44352	18381	92	
4440	0	44347	18377	92	
4441	0	44351	18375	92	
4442	0	44348	18374	92	
4443	0	44350	18376	92	
4444	0	44353	18378	92	
4445	0	44358	18379	92	
4446	0	44360	18384	92	
4447	0	44361	18388	92	
4448	0	44367	18386	92	
4449	0	44380	18389	92	
4450	0	44381	18390	92	
4451	0	44381	18397	92	
4452	0	44387	18396	92	
4453	0	44390	18396	92	
4454	0	44386	18400	92	
4455	0	44388	18404	92	
4456	0	44386	18411	92	
4457	0	44392	18410	92	
4458	0	44395	18417	92	
4459	0	44410	18420	92	
4460	0	44412	18423	92	
4461	0	44414	18422	92	
4462	0	44414	18424	92	
4463	0	44420	18424	92	
4464	0	44416	18424	92	
4465	0	44424	18430	92	
4466	0	44425	18429	92	
4467	0	44428	18433	92	
4468	0	44439	18437	92	
4469	0	44447	18440	92	
4470	0	44454	18442	92	
4471	0	44463	18442	92	
4472	0	44460	18440	92	
4473	0	44457	18438	92	
4474	0	44452	18440	92	
4475	0	44453	18438	92	
4476	0	44454	18441	92	
4477	0	44457	18445	92	
4478	0	44461	18448	92	
4479	0	44474	18450	92	
4480	0	44482	18453	92	
4481	0	44476	18451	92	
4482	0	44478	18447	92	
4483	0	44473	18448	92	
4484	0	44459	18446	92	
4485	0	44450	18438	92	
4486	0	44432	18433	92	
4487	0	44419	18422	92	
4488	0	44395	18415	92	
4489	0	44385	18402	92	
4490	0	44377	18389	92	
4491	0	44357	18375	92	
4492	0	44343	18363	92	
4493	0	44336	18358	92	
4494	0	44329	18354	92	
4495	0	44325	18347	92	
4496	0	44327	18347	92	
4497	0	44329	18349	92	
4498	0	44333	18347	92	
4499	0	44339	18353	92	
4500	0	44349	18356	92	
4501	0	44342	18354	92	
4502	0	44344	18360	92	
4503	0	44357	18363	92	
4504	0	44357	18370	92	
4505	0	44365	18370	92	
4506	0	44368	18379	92	
4507	0	44372	18380	92	
4508	0	44370	18383	92	
4509	0	44375	18385	92	
4510	0	44377	18388	92	
4511	0	44372	18388	92	
4512	0	44379	18390	92	
4513	0	44377	18387	92	
4514	0	44380	18382	92	
4515	0	44375	18380	92	
4516	0	44372	18383	92	
4517	0	44373	18378	92	
4518	0	44362	18383	92	
4519	0	44368	18384	92	
4520	0	44381	18388	92	
4521	0	44376	18392	92	
4522	0	44392	18393	92	
4523	0	44392	18398	92	
4524	0	44399	18398	92	
4525	0	44414	18400	92	
4526	0	44414	18402	92	
4527	0	44409	18402	92	
4528	0	44413	18404	92	
4529	0	44418	18410	92	
4530	0	44423	18410	92	
4531	0	44420	18410	92	
4532	0	44433	18412	92	
4533	0	44434	18416	92	
4534	0	44442	18418	92	
4535	0	44444	18416	92	
4536	0	44444	18421	92	
4537	0	44440	18421	92	
4538	0	44446	18424	92	
4539	0	44459	18426	92	
4540	0	44452	18424	92	
4541	0	44450	18418	92	
4542	0	44446	18425	92	
4543	0	44456	18423	92	
4544	0	44452	18426	92	
4545	0	44453	18428	92	
4546	0	44460	18433	92	
4547	0	44471	18436	92	
4548	0	44467	18431	92	
4549	0	44468	18434	92	
4550	0	44475	18435	92	
4551	0	44467	18435	92	
4552	0	44471	18439	92	
4553	0	44467	18434	92	
4554	0	44466	18437	92	
4555	0	44475	18443	92	
4556	0	44477	18447	92	
4557	0	44483	18450	92	
4558	0	44487	18449	92	
4559	0	44487	18446	92	
4560	0	44475	18446	92	
4561	0	44461	18435	92	
4562	0	44440	18428	92	
4563	0	44417	18414	92	
4564	0	44401	18403	92	
4565	0	44383	18390	92	
4566	0	44362	18379	92	
4567	0	44360	18371	92	
4568	0	44344	18367	92	
4569	0	44347	18366	92	
4570	0	44348	18365	92	
4571	0	44351	18362	92	
4572	0	44348	18363	92	
4573	0	44362	18370	92	
4574	0	44361	18369	92	
4575	0	44364	18371	92	
4576	0	44373	18369	92	
4577	0	44372	18372	92	
4578	0	44379	18375	92	
4579	0	44383	18382	92	
4580	0	44397	18385	92	
4581	0	44396	18387	92	
4582	0	44403	18391	92	
4583	0	44402	18389	92	
4584	0	44408	18393	92	
4585	0	44401	18394	92	
4586	0	44403	18388	92	
4587	0	44396	18381	92	
4588	0	44393	18379	92	
4589	0	44391	18377	92	
4590	0	44382	18376	92	
4591	0	44380	18370	92	
4592	0	44369	18374	92	
4593	0	44375	18373	92	
4594	0	44372	18369	92	
4595	0	44385	18371	92	
4596	0	44383	18369	92	
4597	0	44383	18369	92	
4598	0	44387	18371	92	
4599	0	44391	18369	92	
4600	0	44392	18370	92	
4601	0	44383	18371	92	
4602	0	44388	18376	92	
4603	0	44393	18373	92	
4604	0	44404	18375	92	
4605	0	44399	18375	92	
4606	0	44406	18377	92	
4607	0	44413	18378	92	
4608	0	44417	18377	92	
4609	0	44420	18379	92	
4610	0	44420	18375	92	
4611	0	44414	18383	92	
4612	0	44417	18382	92	
4613	0	44418	18382	92	
4614	0	44413	18380	92	
4615	0	44410	18391	92	
4616	0	44419	18390	92	
4617	0	44419	18393	92	
4618	0	44429	18393	92	
4619	0	44433	18400	92	
4620	0	44435	18401	92	
4621	0	44437	18399	92	
4622	0	44440	18402	92	
4623	0	44440	18401	92	
4624	0	44439	18403	92	
4625	0	44440	18410	92	
4626	0	44451	18410	92	
4627	0	44457	18414	92	
4628	0	44456	18415	92	
4629	0	44444	18403	92	
4630	0	44429	18396	92	
4631	0	44404	18387	92	
4632	0	44386	18374	92	
4633	0	44362	18364	92	
4634	0	44347	18357	92	
4635	0	44330	18346	92	
4636	0	44319	18338	92	
4637	0	44318	18329	92	
4638	0	44304	18325	92	
4639	0	44305	18325	92	
4640	0	44308	18319	92	
4641	0	44311	18323	92	
4642	0	44309	18325	92	
4643	0	44321	18330	92	
4644	0	44324	18330	92	
4645	0	44333	18330	92	
4646	0	44334	18339	92	
4647	0	44345	18343	92	
4648	0	44356	18339	92	
4649	0	44355	18344	92	
4650	0	44361	18346	92	
4651	0	44366	18353	92	
4652	0	44369	18350	92	
4653	0	44364	18353	92	
4654	0	44361	18351	92	
4655	0	44360	18350	92	
4656	0	44359	18350	92	
4657	0	44348	18351	92	
4658	0	44343	18342	92	
4659	0	44346	18344	92	
4660	0	44346	18343	92	
4661	0	44354	18338	92	
4662	0	44354	18338	92	
4663	0	44359	18338	92	
4664	0	44352	18336	92	
4665	0	44360	18334	92	
4666	0	44349	18334	92	
4667	0	44353	18335	92	
4668	0	44346	18333	92	
4669	0	44354	18337	92	
4670	0	44352	18338	92	
4671	0	44352	18343	92	
4672	0	44364	18352	92	
4673	0	44374	18354	92	
4674	0	44371	18351	92	
4675	0	44377	18358	92	
4676	0	44379	18356	92	
4677	0	44376	18359	92	
4678	0	44379	18359	92	
4679	0	44390	18365	92	
4680	0	44379	18368	92	
4681	0	44385	18370	92	
4682	0	44389	18375	92	
4683	0	44387	18383	92	
4684	0	44387	18387	92	
4685	0	44388	18393	92	
4686	0	44409	18401	92	
4687	0	44418	18404	92	
4688	0	44422	18415	92	
4689	0	44435	18416	92	
4690	0	44439	18421	92	
4691	0	44437	18422	92	
4692	0	44441	18426	92	
4693	0	44439	18423	92	
4694	0	44439	18425	92	
4695	0	44436	18424	92	
4696	0	44426	18420	92	
4697	0	44408	18411	92	
4698	0	44388	18405	92	
4699	0	44371	18392	92	
4700	0	44351	18377	92	
4701	0	44320	18359	92	
4702	0	44305	18342	92	
4703	0	44286	18338	92	
4704	0	44279	18326	92	
4705	0	44269	18323	92	
4706	0	44265	18318	92	
4707	0	44258	18319	92	
4708	0	44264	18322	92	
4709	0	44279	18327	92	
4710	0	44291	18332	92	
4711	0	44304	18336	92	
4712	0	44304	18334	92	
4713	0	44305	18337	92	
4714	0	44308	18334	92	
4715	0	44317	18340	92	
4716	0	44321	18342	92	
4717	0	44321	18345	92	
4718	0	44327	18349	92	
4719	0	44328	18353	92	
4720	0	44337	18352	92	
4721	0	44341	18352	92	
4722	0	44338	18352	92	
4723	0	44325	18349	92	
4724	0	44317	18341	92	
4725	0	44316	18341	92	
4726	0	44313	18338	92	
4727	0	44309	18337	92	
4728	0	44302	18338	92	
4729	0	44304	18339	92	
4730	0	44311	18343	92	
4731	0	44313	18342	92	
4732	0	44315	18348	92	
4733	0	44320	18349	92	
4734	0	44324	18355	92	
4735	0	44336	18356	92	
4736	0	44343	18361	92	
4737	0	44348	18364	92	
4738	0	44352	18365	92	
4739	0	44358	18373	92	
4740	0	44365	18374	92	
4741	0	44367	18376	92	
4742	0	44377	18383	92	
4743	0	44370	18381	92	
4744	0	44381	18386	92	
4745	0	44383	18390	92	
4746	0	44383	18397	92	
4747	0	44391	18396	92	
4748	0	44395	18404	92	
4749	0	44403	18410	92	
4750	0	44407	18413	92	
4751	0	44414	18412	92	
4752	0	44410	18417	92	
4753	0	44423	18418	92	
4754	0	44418	18424	92	
4755	0	44420	18425	92	
4756	0	44425	18430	92	
4757	0	44434	18435	92	
4758	0	44433	18439	92	
4759	0	44444	18439	92	
4760	0	44443	18439	92	
4761	0	44438	18431	92	
4762	0	44422	18427	92	
4763	0	44409	18419	92	
4764	0	44383	18400	92	
4765	0	44353	18380	92	
4766	0	44324	18361	92	
4767	0	44294	18342	92	
4768	0	44272	18328	92	
4769	0	44246	18316	92	
4770	0	44234	18308	92	
4771	0	44232	18306	92	
4772	0	44237	18305	92	
4773	0	44233	18303	92	
4774	0	44243	18308	92	
4775	0	44246	18307	92	
4776	0	44250	18309	92	
4777	0	44259	18312	92	
4778	0	44270	18316	92	
4779	0	44263	18316	92	
4780	0	44267	18319	92	
4781	0	44276	18323	92	
4782	0	44290	18330	92	
4783	0	44294	18338	92	
4784	0	44296	18342	92	
4785	0	44303	18342	94	
4786	0	44307	18346	94	
4787	0	44306	18342	94	
4788	0	44307	18339	94	
4789	0	44307	18331	94	
4790	0	44298	18329	94	
4791	0	44285	18326	94	
4792	0	44287	18321	94	
4793	0	44283	18319	94	
4794	0	44277	18317	94	
4795	0	44275	18317	94	
4796	0	44277	18312	94	
4797	0	44276	18320	94	
4798	0	44288	18324	94	
4799	0	44297	18331	94	
4800	0	44300	18329	94	
4801	0	44312	18335	94	
4802	0	44315	18335	94	
4803	0	44325	18341	94	
4804	0	44334	18343	94	
4805	0	44338	18347	94	
4806	0	44337	18346	94	
4807	0	44338	18349	94	
4808	0	44339	18348	94	
4809	0	44339	18352	94	
4810	0	44335	18355	94	
4811	0	44341	18359	94	
4812	0	44343	18359	94	
4813	0	44344	18364	94	
4814	0	44343	18368	94	
4815	0	44357	18370	94	
4816	0	44364	18376	94	
4817	0	44373	18379	94	
4818	0	44377	18380	94	
4819	0	44377	18384	94	
4820	0	44382	18383	94	
4821	0	44386	18384	94	
4822	0	44384	18386	94	
4823	0	44385	18386	94	
4824	0	44395	18392	94	
4825	0	44394	18391	94	
4826	0	44399	18398	94	
4827	0	44399	18400	94	
4828	0	44402	18402	94	
4829	0	44391	18396	94	
4830	0	44382	18388	94	
4831	0	44361	18375	94	
4832	0	44327	18354	94	
4833	0	44296	18333	94	
4834	0	44266	18307	94	
4835	0	44233	18289	94	
4836	0	44208	18273	94	
4837	0	44193	18265	94	
4838	0	44181	18254	94	
4839	0	44178	18250	94	
4840	0	44184	18250	94	
4841	0	44185	18250	94	
4842	0	44183	18253	94	
4843	0	44188	18256	94	
4844	0	44189	18258	94	
4845	0	44193	18263	94	
4846	0	44203	18267	94	
4847	0	44210	18269	94	
4848	0	44221	18275	94	
4849	0	44224	18281	94	
4850	0	44228	18285	94	
4851	0	44235	18292	94	
4852	0	44242	18292	94	
4853	0	44242	18295	94	
4854	0	44248	18294	94	
4855	0	44241	18294	94	
4856	0	44240	18289	94	
4857	0	44236	18290	94	
4858	0	44225	18284	94	
4859	0	44227	18285	94	
4860	0	44225	18284	94	
4861	0	44231	18279	94	
4862	0	44235	18280	94	
4863	0	44239	18279	94	
4864	0	44231	18281	94	
4865	0	44236	18280	94	
4866	0	44235	18280	94	
4867	0	44242	18279	94	
4868	0	44240	18286	94	
4869	0	44244	18286	94	
4870	0	44251	18290	94	
4871	0	44251	18299	94	
4872	0	44266	18299	94	
4873	0	44269	18307	94	
4874	0	44273	18309	94	
4875	0	44285	18314	94	
4876	0	44291	18317	94	
4877	0	44295	18320	94	
4878	0	44300	18324	94	
4879	0	44301	18324	94	
4880	0	44307	18327	94	
4881	0	44309	18326	94	
4882	0	44314	18328	94	
4883	0	44314	18330	94	
4884	0	44316	18332	94	
4885	0	44319	18332	94	
4886	0	44319	18334	94	
4887	0	44326	18339	94	
4888	0	44332	18335	94	
4889	0	44334	18341	94	
4890	0	44334	18341	94	
4891	0	44335	18342	94	
4892	0	44342	18342	94	
4893	0	44340	18342	94	
4894	0	44342	18344	94	
4895	0	44342	18348	94	
4896	0	44337	18351	94	
4897	0	44337	18355	94	
4898	0	44333	18356	94	
4899	0	44324	18355	94	
4900	0	44302	18350	94	
4901	0	44283	18338	94	
4902	0	44264	18329	94	
4903	0	44242	18311	94	
4904	0	44204	18294	94	
4905	0	44186	18288	94	
4906	0	44171	18273	94	
4907	0	44164	18265	94	
4908	0	44155	18257	94	
4909	0	44143	18254	94	
4910	0	44145	18253	94	
4911	0	44150	18260	94	
4912	0	44154	18263	94	
4913	0	44171	18268	94	
4914	0	44176	18278	94	
4915	0	44185	18283	94	
4916	0	44198	18290	94	
4917	0	44207	18291	94	
4918	0	44219	18294	94	
4919	0	44223	18298	94	
4920	0	44233	18295	94	
4921	0	44222	18301	94	
4922	0	44227	18303	94	
4923	0	44226	18310	94	
4924	0	44225	18310	94	
4925	0	44229	18311	94	
4926	0	44232	18307	94	
4927	0	44228	18308	94	
4928	0	44227	18304	94	
4929	0	44230	18303	94	
4930	0	44230	18303	94	
4931	0	44219	18300	94	
4932	0	44217	18299	94	
4933	0	44226	18300	94	
4934	0	44228	18306	94	
4935	0	44232	18305	94	
4936	0	44226	18309	94	
4937	0	44241	18318	94	
4938	0	44246	18320	94	
4939	0	44255	18328	94	
4940	0	44265	18331	94	
4941	0	44273	18336	94	
4942	0	44281	18340	94	
4943	0	44289	18346	94	
4944	0	44288	18350	94	
4945	0	44298	18357	94	
4946	0	44305	18359	94	
4947	0	44306	18365	94	
4948	0	44314	18371	94	
4949	0	44317	18373	94	
4950	0	44319	18377	94	
4951	0	44321	18379	94	
4952	0	44333	18386	94	
4953	0	44336	18388	94	
4954	0	44345	18390	94	
4955	0	44348	18392	94	
4956	0	44347	18396	94	
4957	0	44348	18396	94	
4958	0	44349	18399	94	
4959	0	44350	18403	94	
4960	0	44350	18404	94	
4961	0	44356	18408	94	
4962	0	44358	18414	94	
4963	0	44365	18414	94	
4964	0	44367	18413	94	
4965	0	44376	18419	94	
4966	0	44377	18423	94	
4967	0	44387	18429	94	
4968	0	44395	18433	94	
4969	0	44399	18440	94	
4970	0	44408	18442	94	
4971	0	44410	18446	94	
4972	0	44418	18452	94	
4973	0	44424	18458	94	
4974	0	44425	18457	94	
4975	0	44422	18460	94	
4976	0	44422	18461	94	
4977	0	44403	18454	94	
4978	0	44385	18441	94	
4979	0	44357	18425	94	
4980	0	44325	18408	94	
4981	0	44298	18386	94	
4982	0	44262	18366	94	
4983	0	44243	18349	94	
4984	0	44217	18331	94	
4985	0	44198	18320	94	
4986	0	44189	18316	94	
4987	0	44188	18311	94	
4988	0	44188	18308	94	
4989	0	44185	18311	94	
4990	0	44195	18316	94	
4991	0	44193	18317	94	
4992	0	44204	18325	94	
4993	0	44205	18327	94	
4994	0	44215	18334	94	
4995	0	44217	18333	94	
4996	0	44223	18340	94	
4997	0	44233	18346	94	
4998	0	44235	18350	94	
4999	0	44244	18353	94	
5000	0	44239	18357	94	
5001	0	44244	18360	94	
5002	0	44250	18358	94	
5003	0	44252	18366	94	
5004	0	44252	18361	94	
5005	0	44258	18362	94	
5006	0	44255	18364	94	
5007	0	44255	18360	94	
5008	0	44256	18359	94	
5009	0	44259	18356	94	
5010	0	44257	18359	94	
5011	0	44253	18358	94	
5012	0	44259	18356	94	
5013	0	44261	18357	94	
5014	0	44260	18359	94	
5015	0	44263	18363	94	
5016	0	44270	18367	94	
5017	0	44281	18369	94	
5018	0	44288	18373	94	
5019	0	44292	18375	94	
5020	0	44296	18385	94	
5021	0	44310	18383	94	
5022	0	44315	18388	94	
5023	0	44313	18390	94	
5024	0	44315	18389	94	
5025	0	44322	18394	94	
5026	0	44329	18399	94	
5027	0	44324	18400	94	
5028	0	44330	18406	94	
5029	0	44341	18407	94	
5030	0	44346	18410	94	
5031	0	44349	18417	94	
5032	0	44354	18416	94	
5033	0	44348	18419	94	
5034	0	44361	18424	94	
5035	0	44366	18423	94	
5036	0	44366	18426	94	
5037	0	44358	18429	94	
5038	0	44358	18432	94	
5039	0	44366	18432	94	
5040	0	44368	18435	94	
5041	0	44369	18438	94	
5042	0	44380	18444	94	
5043	0	44375	18450	94	
5044	0	44384	18452	94	
5045	0	44386	18456	94	
5046	0	44393	18462	94	
5047	0	44393	18465	94	
5048	0	44400	18466	94	
5049	0	44402	18471	94	
5050	0	44408	18477	94	
5051	0	44423	18481	94	
5052	0	44424	18489	94	
5053	0	44428	18490	94	
5054	0	44435	18495	94	
5055	0	44442	18495	94	
5056	0	44445	18503	94	
5057	0	44449	18510	94	
5058	0	44454	18506	94	
5059	0	44451	18510	94	
5060	0	44456	18513	94	
5061	0	44444	18508	94	
5062	0	44426	18497	94	
5063	0	44411	18480	94	
5064	0	44375	18468	94	
5065	0	44352	18445	94	
5066	0	44314	18423	94	
5067	0	44283	18399	94	
5068	0	44263	18379	94	
5069	0	44235	18363	94	
5070	0	44223	18360	94	
5071	0	44217	18353	94	
5072	0	44222	18348	94	
5073	0	44224	18352	94	
5074	0	44228	18353	94	
5075	0	44234	18350	94	
5076	0	44242	18355	94	
5077	0	44247	18355	94	
5078	0	44249	18359	94	
5079	0	44250	18360	94	
5080	0	44254	18360	94	
5081	0	44254	18360	94	
5082	0	44262	18360	94	
5083	0	44256	18364	94	
5084	0	44261	18366	94	
5085	0	44267	18368	93	
5086	0	44266	18369	93	
5087	0	44269	18371	93	
5088	0	44269	18365	93	
5089	0	44264	18366	93	
5090	0	44260	18361	93	
5091	0	44262	18361	93	
5092	0	44255	18356	93	
5093	0	44257	18355	93	
5094	0	44261	18358	93	
5095	0	44266	18355	93	
5096	0	44266	18357	93	
5097	0	44269	18355	93	
5098	0	44271	18359	93	
5099	0	44268	18359	93	
5100	0	44278	18361	93	
5101	0	44276	18368	93	
5102	0	44281	18371	93	
5103	0	44295	18375	93	
5104	0	44305	18380	93	
5105	0	44308	18379	93	
5106	0	44319	18383	93	
5107	0	44312	18387	93	
5108	0	44324	18387	93	
5109	0	44324	18391	93	
5110	0	44333	18395	93	
5111	0	44332	18396	93	
5112	0	44334	18397	93	
5113	0	44340	18400	93	
5114	0	44348	18401	93	
5115	0	44349	18407	93	
5116	0	44357	18410	93	
5117	0	44356	18410	93	
5118	0	44363	18414	93	
5119	0	44369	18417	93	
5120	0	44372	18421	93	
5121	0	44382	18421	93	
5122	0	44377	18416	93	
5123	0	44387	18419	93	
5124	0	44386	18416	93	
5125	0	44385	18424	93	
5126	0	44384	18418	93	
5127	0	44379	18422	93	
5128	0	44383	18426	93	
5129	0	44380	18429	93	
5130	0	44391	18431	93	
5131	0	44390	18434	93	
5132	0	44402	18439	93	
5133	0	44412	18444	93	
5134	0	44412	18444	93	
5135	0	44411	18448	93	
5136	0	44407	18446	93	
5137	0	44415	18448	93	
5138	0	44416	18449	93	
5139	0	44410	18450	93	
5140	0	44418	18457	93	
5141	0	44421	18459	93	
5142	0	44433	18460	93	
5143	0	44442	18468	93	
5144	0	44445	18467	93	
5145	0	44447	18475	93	
5146	0	44451	18478	93	
5147	0	44451	18476	93	
5148	0	44455	18479	93	
5149	0	44458	18481	93	
5150	0	44458	18480	93	
5151	0	44451	18479	93	
5152	0	44426	18467	93	
5153	0	44406	18455	93	
5154	0	44376	18442	93	
5155	0	44350	18421	93	
5156	0	44313	18401	93	
5157	0	44292	18376	93	
5158	0	44270	18364	93	
5159	0	44251	18350	93	
5160	0	44242	18336	93	
5161	0	44223	18329	93	
5162	0	44217	18322	93	
5163	0	44215	18322	93	
5164	0	44212	18327	93	
5165	0	44223	18326	93	
5166	0	44227	18328	93	
5167	0	44235	18334	93	
5168	0	44243	18337	93	
5169	0	44259	18340	93	
5170	0	44256	18340	93	
5171	0	44265	18341	93	
5172	0	44267	18344	93	
5173	0	44269	18343	93	
5174	0	44267	18343	93	
5175	0	44266	18339	93	
5176	0	44263	18340	93	
5177	0	44263	18338	93	
5178	0	44258	18338	93	
5179	0	44262	18338	93	
5180	0	44255	18337	93	
5181	0	44245	18331	93	
5182	0	44240	18330	93	
5183	0	44246	18327	93	
5184	0	44247	18329	93	
5185	0	44250	18327	93	
5186	0	44254	18325	93	
5187	0	44255	18324	93	
5188	0	44255	18323	93	
5189	0	44257	18320	93	
5190	0	44251	18326	93	
5191	0	44253	18327	93	
5192	0	44257	18329	93	
5193	0	44271	18334	93	
5194	0	44274	18338	93	
5195	0	44283	18341	93	
5196	0	44295	18346	93	
5197	0	44300	18349	93	
5198	0	44300	18351	93	
5199	0	44304	18350	93	
5200	0	44309	18350	93	
5201	0	44311	18349	93	
5202	0	44309	18353	93	
5203	0	44318	18356	93	
5204	0	44317	18357	93	
5205	0	44320	18362	93	
5206	0	44326	18362	93	
5207	0	44322	18368	93	
5208	0	44330	18367	93	
5209	0	44324	18367	93	
5210	0	44333	18369	93	
5211	0	44332	18371	93	
5212	0	44332	18375	93	
5213	0	44344	18380	93	
5214	0	44349	18384	93	
5215	0	44354	18379	93	
5216	0	44362	18386	93	
5217	0	44361	18383	93	
5218	0	44353	18382	93	
5219	0	44357	18383	93	
5220	0	44356	18386	93	
5221	0	44356	18386	93	
5222	0	44361	18392	93	
5223	0	44370	18394	93	
5224	0	44370	18397	93	
5225	0	44377	18401	93	
5226	0	44381	18398	93	
5227	0	44392	18402	93	
5228	0	44392	18398	93	
5229	0	44391	18403	93	
5230	0	44395	18407	93	
5231	0	44401	18403	93	
5232	0	44400	18411	93	
