# OpenSignals Text File Format. Version 1
# {"84:2E:14:0C:D8:EF": {"position": 0, "device": "biosignalsplux", "device name": "84:2E:14:0C:D8:EF", "device connection": "BTH84:2E:14:0C:D8:EF", "sampling rate": 100, "resolution": [16, 16], "firmware version": 779, "comments": "", "keywords": "", "mode": 0, "sync interval": 2, "date": "2026-4-24", "time": "15:31:51.454", "channels": [9, 10, 11], "sensor": ["fSpO2", "fSpO2", "%SpO2"], "label": ["CH9A", "CH9B", "%SpO2"], "column": ["nSeq", "DI", "CH9A", "CH9B", "%SpO2"], "special": [{"SpO2": [80, 40, 5, 4, 4, 4]}, {"SpO2": [80, 40, 5, 4, 4, 4]}, {"SpO2": [80, 40, 5, 4, 4, 4]}, {"SpO2": [80, 40, 5, 4, 4, 4]}, {"SpO2": [80, 40, 5, 4, 4, 4]}, {"SpO2": [80, 40, 5, 4, 4, 4]}, {"SpO2": [80, 40, 5, 4, 4, 4]}, {"SpO2": [80, 40, 5, 4, 4, 4]}, {"SpO2": [80, 40, 5, 4, 4, 4]}, {"SpO2": [80, 40, 5, 4, 4, 4]}], "digital IO": [0, 1], "virtual channels": "{'channels': [11], 'calculationChannels': [[9, 10]]}", "sleeve color": ["yellow", "yellow", "dark_blue"]}}
# EndOfHeader
0	0	42843	15799	0	
1	0	42867	15797	0	
2	0	42873	15797	0	
3	0	42870	15800	0	
4	0	42875	15798	0	
5	0	42877	15802	0	
6	0	42885	15803	0	
7	0	42883	15806	0	
8	0	42887	15804	0	
9	0	42895	15808	0	
10	0	42895	15812	0	
11	0	42903	15816	0	
12	0	42905	15817	0	
13	0	42914	15818	0	
14	0	42911	15821	0	
15	0	42919	15825	0	
16	0	42924	15824	0	
17	0	42918	15825	0	
18	0	42923	15829	0	
19	0	42929	15829	0	
20	0	42937	15832	0	
21	0	42933	15828	0	
22	0	42938	15829	0	
23	0	42933	15830	0	
24	0	42939	15831	0	
25	0	42937	15831	0	
26	0	42944	15829	0	
27	0	42949	15834	0	
28	0	42946	15833	0	
29	0	42940	15830	0	
30	0	42948	15832	0	
31	0	42951	15833	0	
32	0	42952	15838	0	
33	0	42953	15840	0	
34	0	42958	15839	0	
35	0	42953	15840	0	
36	0	42959	15842	0	
37	0	42967	15843	0	
38	0	42971	15844	0	
39	0	42972	15844	0	
40	0	42976	15847	0	
41	0	42974	15843	0	
42	0	42962	15838	0	
43	0	42954	15830	0	
44	0	42932	15824	0	
45	0	42912	15807	0	
46	0	42893	15794	0	
47	0	42862	15784	0	
48	0	42850	15773	0	
49	0	42821	15760	0	
50	0	42813	15751	0	
51	0	42799	15750	0	
52	0	42784	15740	0	
53	0	42789	15741	0	
54	0	42790	15738	0	
55	0	42793	15739	0	
56	0	42791	15738	0	
57	0	42791	15743	0	
58	0	42796	15741	0	
59	0	42799	15742	0	
60	0	42804	15743	0	
61	0	42808	15745	0	
62	0	42809	15746	0	
63	0	42809	15745	0	
64	0	42816	15749	0	
65	0	42824	15751	0	
66	0	42823	15755	0	
67	0	42825	15757	0	
68	0	42835	15756	0	
69	0	42839	15754	0	
70	0	42840	15759	0	
71	0	42837	15759	0	
72	0	42835	15758	0	
73	0	42838	15757	0	
74	0	42835	15757	0	
75	0	42832	15759	0	
76	0	42836	15755	0	
77	0	42828	15756	0	
78	0	42832	15753	0	
79	0	42836	15755	0	
80	0	42835	15756	0	
81	0	42835	15759	0	
82	0	42839	15759	0	
83	0	42846	15764	0	
84	0	42844	15763	0	
85	0	42857	15770	0	
86	0	42861	15769	0	
87	0	42861	15774	0	
88	0	42866	15774	0	
89	0	42875	15783	0	
90	0	42877	15783	0	
91	0	42884	15789	0	
92	0	42890	15788	0	
93	0	42901	15792	0	
94	0	42896	15792	0	
95	0	42907	15796	0	
96	0	42908	15797	0	
97	0	42916	15801	0	
98	0	42911	15804	0	
99	0	42919	15803	0	
100	0	42922	15808	0	
101	0	42922	15807	0	
102	0	42924	15811	0	
103	0	42930	15811	0	
104	0	42930	15813	0	
105	0	42926	15814	0	
106	0	42930	15811	0	
107	0	42931	15813	0	
108	0	42934	15813	0	
109	0	42928	15817	0	
110	0	42942	15816	0	
111	0	42932	15818	0	
112	0	42937	15819	0	
113	0	42939	15816	0	
114	0	42940	15818	0	
115	0	42952	15822	0	
116	0	42955	15822	0	
117	0	42956	15827	0	
118	0	42961	15829	0	
119	0	42957	15833	0	
120	0	42967	15835	0	
121	0	42962	15832	0	
122	0	42958	15829	0	
123	0	42954	15828	0	
124	0	42943	15819	0	
125	0	42918	15807	0	
126	0	42902	15791	0	
127	0	42875	15778	0	
128	0	42849	15764	0	
129	0	42833	15749	0	
130	0	42813	15740	0	
131	0	42800	15733	0	
132	0	42789	15725	0	
133	0	42788	15721	0	
134	0	42776	15721	0	
135	0	42778	15724	0	
136	0	42780	15721	0	
137	0	42773	15721	0	
138	0	42781	15724	0	
139	0	42787	15728	0	
140	0	42788	15729	0	
141	0	42793	15728	0	
142	0	42790	15728	0	
143	0	42791	15729	0	
144	0	42795	15734	0	
145	0	42795	15734	0	
146	0	42807	15738	0	
147	0	42811	15740	0	
148	0	42814	15740	0	
149	0	42825	15744	0	
150	0	42823	15745	0	
151	0	42827	15748	0	
152	0	42821	15748	0	
153	0	42824	15751	0	
154	0	42822	15753	0	
155	0	42825	15749	0	
156	0	42817	15749	0	
157	0	42817	15747	0	
158	0	42815	15750	0	
159	0	42816	15748	0	
160	0	42825	15752	0	
161	0	42825	15752	0	
162	0	42822	15753	0	
163	0	42823	15754	0	
164	0	42829	15763	0	
165	0	42839	15759	0	
166	0	42836	15762	0	
167	0	42844	15765	0	
168	0	42848	15769	0	
169	0	42859	15771	0	
170	0	42858	15772	0	
171	0	42865	15779	0	
172	0	42870	15780	0	
173	0	42869	15780	0	
174	0	42879	15785	0	
175	0	42879	15788	0	
176	0	42885	15789	0	
177	0	42887	15789	0	
178	0	42886	15790	0	
179	0	42892	15790	0	
180	0	42893	15796	0	
181	0	42896	15799	0	
182	0	42900	15798	0	
183	0	42902	15798	0	
184	0	42905	15795	0	
185	0	42897	15801	0	
186	0	42902	15802	0	
187	0	42898	15800	0	
188	0	42900	15802	0	
189	0	42899	15801	0	
190	0	42904	15801	0	
191	0	42907	15806	0	
192	0	42908	15803	0	
193	0	42913	15802	0	
194	0	42916	15808	0	
195	0	42917	15806	0	
196	0	42912	15810	0	
197	0	42911	15809	0	
198	0	42908	15804	0	
199	0	42895	15796	0	
200	0	42885	15789	0	
201	0	42854	15781	0	
202	0	42840	15764	0	
203	0	42815	15749	0	
204	0	42794	15738	0	
205	0	42764	15726	0	
206	0	42752	15716	0	
207	0	42736	15705	0	
208	0	42729	15704	0	
209	0	42722	15703	0	
210	0	42717	15699	0	
211	0	42714	15701	0	
212	0	42718	15703	0	
213	0	42721	15704	0	
214	0	42723	15701	0	
215	0	42721	15704	0	
216	0	42722	15704	0	
217	0	42730	15704	0	
218	0	42729	15706	0	
219	0	42725	15711	0	
220	0	42728	15709	0	
221	0	42738	15714	0	
222	0	42744	15717	0	
223	0	42741	15721	0	
224	0	42758	15720	0	
225	0	42762	15724	0	
226	0	42756	15727	0	
227	0	42765	15726	0	
228	0	42761	15726	0	
229	0	42755	15723	0	
230	0	42759	15722	0	
231	0	42762	15725	0	
232	0	42755	15722	0	
233	0	42764	15726	0	
234	0	42759	15725	0	
235	0	42761	15730	0	
236	0	42765	15731	0	
237	0	42765	15731	0	
238	0	42772	15732	0	
239	0	42771	15736	0	
240	0	42779	15731	0	
241	0	42781	15740	0	
242	0	42784	15744	0	
243	0	42789	15749	0	
244	0	42793	15747	0	
245	0	42807	15754	0	
246	0	42809	15756	0	
247	0	42812	15759	0	
248	0	42825	15762	0	
249	0	42821	15763	0	
250	0	42827	15770	0	
251	0	42828	15770	0	
252	0	42837	15770	0	
253	0	42831	15771	0	
254	0	42836	15777	0	
255	0	42839	15776	0	
256	0	42846	15777	0	
257	0	42842	15780	0	
258	0	42845	15780	0	
259	0	42850	15784	0	
260	0	42851	15783	0	
261	0	42851	15785	0	
262	0	42855	15788	0	
263	0	42862	15788	0	
264	0	42859	15789	0	
265	0	42859	15789	0	
266	0	42862	15790	0	
267	0	42868	15795	0	
268	0	42861	15793	0	
269	0	42862	15792	0	
270	0	42857	15787	0	
271	0	42841	15782	0	
272	0	42824	15771	0	
273	0	42804	15760	0	
274	0	42786	15746	0	
275	0	42767	15739	0	
276	0	42741	15722	0	
277	0	42723	15716	0	
278	0	42707	15706	0	
279	0	42692	15701	0	
280	0	42681	15697	0	
281	0	42683	15696	0	
282	0	42680	15694	0	
283	0	42679	15696	0	
284	0	42683	15695	0	
285	0	42687	15696	94	
286	0	42687	15698	94	
287	0	42691	15699	94	
288	0	42696	15698	94	
289	0	42697	15703	94	
290	0	42701	15703	94	
291	0	42707	15706	94	
292	0	42709	15707	94	
293	0	42713	15713	94	
294	0	42721	15716	94	
295	0	42720	15721	94	
296	0	42730	15720	94	
297	0	42735	15721	94	
298	0	42731	15723	94	
299	0	42740	15723	94	
300	0	42740	15725	94	
301	0	42738	15724	94	
302	0	42734	15724	94	
303	0	42735	15721	94	
304	0	42730	15727	94	
305	0	42731	15723	94	
306	0	42723	15726	94	
307	0	42725	15725	94	
308	0	42730	15726	94	
309	0	42732	15726	94	
310	0	42740	15731	94	
311	0	42742	15734	94	
312	0	42746	15733	94	
313	0	42751	15739	94	
314	0	42750	15740	94	
315	0	42762	15741	94	
316	0	42763	15745	94	
317	0	42768	15751	94	
318	0	42777	15757	94	
319	0	42780	15760	94	
320	0	42790	15761	94	
321	0	42794	15765	94	
322	0	42799	15766	94	
323	0	42800	15766	94	
324	0	42808	15773	94	
325	0	42811	15770	94	
326	0	42813	15775	94	
327	0	42815	15774	94	
328	0	42816	15780	94	
329	0	42818	15780	94	
330	0	42817	15779	94	
331	0	42820	15783	94	
332	0	42824	15785	94	
333	0	42822	15786	94	
334	0	42825	15783	94	
335	0	42833	15785	94	
336	0	42833	15790	94	
337	0	42833	15788	94	
338	0	42838	15791	94	
339	0	42832	15789	94	
340	0	42838	15790	94	
341	0	42843	15793	94	
342	0	42836	15798	94	
343	0	42836	15793	94	
344	0	42833	15793	94	
345	0	42817	15782	94	
346	0	42803	15769	94	
347	0	42774	15758	94	
348	0	42751	15742	94	
349	0	42730	15728	94	
350	0	42705	15716	94	
351	0	42690	15708	94	
352	0	42674	15698	94	
353	0	42667	15694	94	
354	0	42657	15692	94	
355	0	42652	15690	94	
356	0	42649	15690	94	
357	0	42655	15690	94	
358	0	42657	15695	94	
359	0	42652	15696	94	
360	0	42654	15694	94	
361	0	42661	15699	94	
362	0	42665	15697	94	
363	0	42674	15699	94	
364	0	42675	15700	94	
365	0	42678	15702	94	
366	0	42683	15705	94	
367	0	42693	15709	94	
368	0	42701	15717	94	
369	0	42708	15718	94	
370	0	42705	15718	94	
371	0	42708	15721	94	
372	0	42707	15721	94	
373	0	42711	15722	94	
374	0	42707	15721	94	
375	0	42715	15718	94	
376	0	42709	15719	94	
377	0	42708	15716	94	
378	0	42709	15717	94	
379	0	42700	15719	94	
380	0	42706	15719	94	
381	0	42704	15722	94	
382	0	42707	15721	94	
383	0	42710	15726	94	
384	0	42717	15725	94	
385	0	42720	15732	94	
386	0	42728	15736	94	
387	0	42730	15735	94	
388	0	42733	15741	94	
389	0	42749	15741	94	
390	0	42756	15747	94	
391	0	42755	15747	94	
392	0	42766	15751	94	
393	0	42762	15755	94	
394	0	42764	15757	94	
395	0	42770	15756	94	
396	0	42777	15759	94	
397	0	42780	15759	94	
398	0	42786	15765	94	
399	0	42793	15768	94	
400	0	42789	15769	94	
401	0	42793	15769	94	
402	0	42800	15767	94	
403	0	42805	15769	94	
404	0	42799	15775	94	
405	0	42809	15776	94	
406	0	42811	15777	94	
407	0	42812	15782	94	
408	0	42820	15780	94	
409	0	42815	15781	94	
410	0	42824	15784	94	
411	0	42826	15788	94	
412	0	42823	15789	94	
413	0	42835	15793	94	
414	0	42835	15796	94	
415	0	42846	15798	94	
416	0	42850	15799	94	
417	0	42856	15799	94	
418	0	42852	15801	94	
419	0	42851	15803	94	
420	0	42854	15800	94	
421	0	42847	15795	94	
422	0	42835	15793	94	
423	0	42818	15781	94	
424	0	42796	15765	94	
425	0	42772	15758	94	
426	0	42753	15741	94	
427	0	42730	15734	94	
428	0	42710	15725	94	
429	0	42702	15718	94	
430	0	42693	15714	94	
431	0	42681	15708	94	
432	0	42684	15705	94	
433	0	42679	15703	94	
434	0	42684	15705	94	
435	0	42690	15708	94	
436	0	42693	15709	94	
437	0	42699	15712	94	
438	0	42705	15717	94	
439	0	42706	15718	94	
440	0	42713	15718	94	
441	0	42718	15726	94	
442	0	42724	15725	94	
443	0	42729	15725	94	
444	0	42742	15732	94	
445	0	42740	15735	94	
446	0	42750	15735	94	
447	0	42754	15739	94	
448	0	42753	15741	94	
449	0	42763	15739	94	
450	0	42760	15740	94	
451	0	42755	15744	94	
452	0	42752	15742	94	
453	0	42760	15744	94	
454	0	42755	15740	94	
455	0	42757	15740	94	
456	0	42758	15741	94	
457	0	42751	15740	94	
458	0	42756	15739	94	
459	0	42759	15744	94	
460	0	42760	15747	94	
461	0	42765	15745	94	
462	0	42772	15749	94	
463	0	42782	15750	94	
464	0	42784	15755	94	
465	0	42791	15757	94	
466	0	42798	15764	94	
467	0	42804	15765	94	
468	0	42809	15771	94	
469	0	42821	15773	94	
470	0	42829	15778	94	
471	0	42831	15779	94	
472	0	42834	15782	94	
473	0	42846	15786	94	
474	0	42847	15789	94	
475	0	42857	15794	94	
476	0	42857	15793	94	
477	0	42868	15795	94	
478	0	42868	15801	94	
479	0	42879	15801	94	
480	0	42877	15801	94	
481	0	42883	15802	94	
482	0	42885	15807	94	
483	0	42886	15805	94	
484	0	42885	15805	94	
485	0	42885	15807	94	
486	0	42887	15809	94	
487	0	42888	15811	94	
488	0	42893	15812	94	
489	0	42901	15811	94	
490	0	42901	15815	94	
491	0	42904	15813	94	
492	0	42910	15819	94	
493	0	42907	15816	94	
494	0	42910	15819	94	
495	0	42918	15823	94	
496	0	42924	15825	94	
497	0	42921	15827	94	
498	0	42924	15829	94	
499	0	42933	15834	94	
500	0	42941	15837	94	
501	0	42939	15834	94	
502	0	42943	15838	94	
503	0	42938	15831	94	
504	0	42927	15825	94	
505	0	42909	15816	94	
506	0	42889	15802	94	
507	0	42871	15793	94	
508	0	42847	15776	94	
509	0	42818	15762	94	
510	0	42809	15752	94	
511	0	42791	15741	94	
512	0	42776	15738	94	
513	0	42769	15731	94	
514	0	42762	15730	94	
515	0	42761	15731	94	
516	0	42769	15733	94	
517	0	42773	15732	94	
518	0	42773	15735	94	
519	0	42783	15736	94	
520	0	42781	15741	94	
521	0	42789	15738	94	
522	0	42792	15741	94	
523	0	42798	15740	94	
524	0	42798	15744	94	
525	0	42807	15746	94	
526	0	42814	15744	94	
527	0	42816	15753	94	
528	0	42823	15757	94	
529	0	42828	15760	94	
530	0	42833	15755	94	
531	0	42834	15755	94	
532	0	42829	15758	94	
533	0	42830	15755	94	
534	0	42828	15760	94	
535	0	42834	15756	94	
536	0	42831	15755	94	
537	0	42826	15754	94	
538	0	42832	15756	94	
539	0	42830	15754	94	
540	0	42836	15752	94	
541	0	42832	15754	94	
542	0	42837	15756	94	
543	0	42839	15755	94	
544	0	42844	15761	94	
545	0	42847	15762	94	
546	0	42858	15764	94	
547	0	42861	15769	94	
548	0	42867	15770	94	
549	0	42871	15771	94	
550	0	42877	15774	94	
551	0	42889	15777	94	
552	0	42892	15780	94	
553	0	42900	15782	94	
554	0	42900	15786	94	
555	0	42906	15788	94	
556	0	42908	15794	94	
557	0	42916	15794	94	
558	0	42920	15793	94	
559	0	42921	15794	94	
560	0	42920	15799	94	
561	0	42925	15797	94	
562	0	42928	15802	94	
563	0	42928	15798	94	
564	0	42932	15801	94	
565	0	42938	15801	94	
566	0	42937	15804	94	
567	0	42943	15802	94	
568	0	42945	15803	94	
569	0	42947	15805	94	
570	0	42951	15807	94	
571	0	42948	15806	94	
572	0	42946	15807	94	
573	0	42948	15807	94	
574	0	42953	15806	94	
575	0	42955	15808	94	
576	0	42958	15805	94	
577	0	42964	15809	94	
578	0	42968	15813	94	
579	0	42965	15813	94	
580	0	42973	15814	94	
581	0	42974	15821	94	
582	0	42973	15818	94	
583	0	42980	15822	94	
584	0	42983	15818	94	
585	0	42986	15820	94	
586	0	42982	15825	94	
587	0	42973	15819	94	
588	0	42959	15810	94	
589	0	42944	15801	94	
590	0	42921	15787	94	
591	0	42897	15772	94	
592	0	42871	15757	94	
593	0	42849	15744	94	
594	0	42829	15736	94	
595	0	42812	15727	94	
596	0	42799	15719	94	
597	0	42797	15712	94	
598	0	42792	15711	94	
599	0	42793	15714	94	
600	0	42795	15714	94	
601	0	42800	15712	94	
602	0	42808	15715	94	
603	0	42804	15717	94	
604	0	42816	15717	94	
605	0	42821	15725	94	
606	0	42822	15724	94	
607	0	42831	15725	94	
608	0	42831	15727	94	
609	0	42844	15731	94	
610	0	42844	15733	94	
611	0	42854	15740	94	
612	0	42852	15739	94	
613	0	42861	15738	94	
614	0	42865	15742	94	
615	0	42864	15745	94	
616	0	42866	15740	94	
617	0	42869	15745	94	
618	0	42865	15744	94	
619	0	42870	15744	94	
620	0	42871	15741	94	
621	0	42863	15739	94	
622	0	42868	15742	94	
623	0	42859	15738	94	
624	0	42865	15742	94	
625	0	42875	15744	94	
626	0	42873	15742	94	
627	0	42873	15746	94	
628	0	42885	15745	94	
629	0	42888	15751	94	
630	0	42892	15751	94	
631	0	42901	15759	94	
632	0	42903	15759	94	
633	0	42916	15760	94	
634	0	42919	15763	94	
635	0	42926	15765	94	
636	0	42931	15771	94	
637	0	42935	15776	94	
638	0	42937	15776	94	
639	0	42942	15780	94	
640	0	42953	15782	94	
641	0	42955	15787	94	
642	0	42964	15785	94	
643	0	42968	15791	94	
644	0	42964	15792	94	
645	0	42969	15795	94	
646	0	42966	15792	94	
647	0	42976	15795	94	
648	0	42971	15796	94	
649	0	42973	15796	94	
650	0	42980	15799	94	
651	0	42985	15798	94	
652	0	42983	15800	94	
653	0	42982	15802	94	
654	0	42987	15806	94	
655	0	42992	15805	94	
656	0	42996	15806	94	
657	0	42989	15805	94	
658	0	42995	15806	94	
659	0	43000	15810	94	
660	0	43003	15806	94	
661	0	43007	15807	94	
662	0	43007	15813	94	
663	0	43012	15814	94	
664	0	43009	15816	94	
665	0	43014	15814	94	
666	0	43017	15818	94	
667	0	43019	15819	94	
668	0	43019	15818	94	
669	0	43023	15822	94	
670	0	43024	15825	94	
671	0	43029	15827	94	
672	0	43035	15827	94	
673	0	43027	15822	94	
674	0	43013	15820	94	
675	0	43006	15813	94	
676	0	42984	15803	94	
677	0	42962	15788	94	
678	0	42943	15775	94	
679	0	42920	15763	94	
680	0	42903	15753	94	
681	0	42879	15741	94	
682	0	42863	15733	94	
683	0	42864	15726	94	
684	0	42850	15723	94	
685	0	42855	15723	94	
686	0	42847	15722	94	
687	0	42856	15723	94	
688	0	42854	15725	94	
689	0	42857	15725	94	
690	0	42864	15729	94	
691	0	42871	15731	94	
692	0	42879	15730	94	
693	0	42885	15734	94	
694	0	42891	15739	94	
695	0	42896	15740	94	
696	0	42898	15745	94	
697	0	42906	15743	94	
698	0	42907	15745	94	
699	0	42895	15746	94	
700	0	42901	15746	94	
701	0	42901	15741	94	
702	0	42895	15746	94	
703	0	42893	15738	94	
704	0	42891	15736	94	
705	0	42880	15732	94	
706	0	42877	15730	94	
707	0	42873	15726	94	
708	0	42878	15723	94	
709	0	42880	15721	94	
710	0	42867	15718	94	
711	0	42878	15724	94	
712	0	42881	15725	94	
713	0	42884	15725	94	
714	0	42886	15731	94	
715	0	42892	15735	94	
716	0	42905	15741	94	
717	0	42905	15741	94	
718	0	42913	15745	94	
719	0	42918	15749	94	
720	0	42913	15747	94	
721	0	42921	15746	94	
722	0	42919	15744	94	
723	0	42922	15746	94	
724	0	42911	15748	94	
725	0	42910	15743	94	
726	0	42913	15744	94	
727	0	42911	15745	94	
728	0	42910	15741	94	
729	0	42909	15738	94	
730	0	42914	15741	94	
731	0	42913	15741	94	
732	0	42921	15746	94	
733	0	42931	15746	94	
734	0	42933	15755	94	
735	0	42948	15759	94	
736	0	42961	15764	94	
737	0	42973	15777	94	
738	0	42990	15783	94	
739	0	43002	15792	94	
740	0	43009	15793	94	
741	0	43011	15798	94	
742	0	43024	15801	94	
743	0	43028	15807	94	
744	0	43036	15808	94	
745	0	43040	15814	94	
746	0	43038	15818	94	
747	0	43049	15816	94	
748	0	43043	15817	94	
749	0	43051	15815	94	
750	0	43041	15814	94	
751	0	43034	15815	94	
752	0	43034	15810	94	
753	0	43023	15810	94	
754	0	43024	15810	94	
755	0	43022	15805	94	
756	0	43015	15803	94	
757	0	43001	15798	94	
758	0	43005	15794	94	
759	0	42990	15790	94	
760	0	42982	15782	94	
761	0	42967	15772	94	
762	0	42955	15765	94	
763	0	42937	15753	94	
764	0	42918	15746	94	
765	0	42907	15738	94	
766	0	42894	15732	94	
767	0	42892	15728	94	
768	0	42891	15725	94	
769	0	42889	15724	94	
770	0	42889	15724	94	
771	0	42892	15727	94	
772	0	42895	15728	94	
773	0	42892	15731	94	
774	0	42892	15731	94	
775	0	42900	15730	94	
776	0	42893	15732	94	
777	0	42898	15733	94	
778	0	42892	15731	94	
779	0	42903	15731	94	
780	0	42903	15730	94	
781	0	42908	15734	94	
782	0	42910	15737	94	
783	0	42912	15737	94	
784	0	42921	15742	94	
785	0	42921	15743	94	
786	0	42929	15748	94	
787	0	42936	15746	94	
788	0	42931	15750	94	
789	0	42936	15752	94	
790	0	42932	15747	94	
791	0	42940	15750	94	
792	0	42935	15752	94	
793	0	42932	15747	94	
794	0	42933	15744	94	
795	0	42925	15742	94	
796	0	42922	15740	94	
797	0	42924	15738	94	
798	0	42916	15740	94	
799	0	42919	15742	94	
800	0	42926	15739	94	
801	0	42922	15736	94	
802	0	42922	15738	94	
803	0	42917	15741	94	
804	0	42923	15737	94	
805	0	42934	15742	94	
806	0	42930	15746	94	
807	0	42938	15753	94	
808	0	42946	15755	94	
809	0	42956	15758	94	
810	0	42968	15767	94	
811	0	42970	15769	94	
812	0	42980	15772	94	
813	0	42981	15775	94	
814	0	42988	15780	94	
815	0	42995	15783	94	
816	0	43010	15787	94	
817	0	43014	15792	94	
818	0	43008	15792	94	
819	0	43015	15794	94	
820	0	43015	15798	94	
821	0	43025	15797	94	
822	0	43022	15802	94	
823	0	43021	15797	94	
824	0	43017	15798	94	
825	0	43025	15799	94	
826	0	43022	15797	94	
827	0	43018	15796	94	
828	0	43012	15797	94	
829	0	43016	15797	94	
830	0	43020	15797	94	
831	0	43015	15798	94	
832	0	43022	15801	94	
833	0	43025	15802	94	
834	0	43031	15804	94	
835	0	43030	15807	94	
836	0	43037	15805	94	
837	0	43039	15812	94	
838	0	43041	15813	94	
839	0	43044	15812	94	
840	0	43046	15812	94	
841	0	43039	15812	94	
842	0	43026	15804	94	
843	0	43012	15795	94	
844	0	42995	15784	94	
845	0	42972	15778	94	
846	0	42956	15762	94	
847	0	42939	15752	94	
848	0	42927	15746	94	
849	0	42913	15740	94	
850	0	42906	15731	94	
851	0	42895	15731	94	
852	0	42900	15728	94	
853	0	42902	15729	94	
854	0	42903	15729	94	
855	0	42898	15731	94	
856	0	42903	15736	94	
857	0	42916	15739	94	
858	0	42920	15741	94	
859	0	42924	15742	94	
860	0	42924	15749	94	
861	0	42929	15746	94	
862	0	42932	15751	94	
863	0	42937	15751	94	
864	0	42943	15752	94	
865	0	42942	15754	94	
866	0	42951	15755	94	
867	0	42948	15757	94	
868	0	42950	15760	94	
869	0	42948	15760	94	
870	0	42949	15757	94	
871	0	42944	15750	94	
872	0	42939	15753	94	
873	0	42929	15752	94	
874	0	42931	15745	94	
875	0	42922	15744	94	
876	0	42922	15741	94	
877	0	42920	15739	94	
878	0	42918	15738	94	
879	0	42918	15738	94	
880	0	42923	15738	94	
881	0	42922	15743	94	
882	0	42924	15741	94	
883	0	42929	15746	94	
884	0	42934	15745	94	
885	0	42931	15746	94	
886	0	42943	15751	94	
887	0	42949	15751	94	
888	0	42946	15756	94	
889	0	42960	15756	94	
890	0	42966	15761	94	
891	0	42968	15763	94	
892	0	42977	15763	94	
893	0	42974	15766	94	
894	0	42971	15769	94	
895	0	42980	15772	94	
896	0	42984	15769	94	
897	0	42985	15772	94	
898	0	42984	15774	94	
899	0	42988	15774	94	
900	0	42989	15775	94	
901	0	42994	15777	94	
902	0	42990	15777	94	
903	0	42991	15779	94	
904	0	42996	15780	94	
905	0	42996	15782	94	
906	0	42995	15780	94	
907	0	42995	15780	94	
908	0	43005	15780	94	
909	0	43002	15784	94	
910	0	42999	15783	94	
911	0	42996	15785	94	
912	0	43007	15789	94	
913	0	43007	15789	94	
914	0	43007	15791	94	
915	0	43007	15790	94	
916	0	43007	15792	94	
917	0	43002	15786	94	
918	0	42993	15782	94	
919	0	42982	15768	94	
920	0	42956	15763	94	
921	0	42936	15748	94	
922	0	42915	15735	94	
923	0	42889	15723	94	
924	0	42870	15709	94	
925	0	42851	15701	94	
926	0	42843	15694	94	
927	0	42830	15688	94	
928	0	42824	15685	94	
929	0	42827	15680	94	
930	0	42826	15683	94	
931	0	42825	15683	94	
932	0	42830	15680	94	
933	0	42832	15686	94	
934	0	42840	15689	94	
935	0	42849	15693	94	
936	0	42849	15693	94	
937	0	42856	15696	94	
938	0	42854	15698	94	
939	0	42861	15699	94	
940	0	42862	15702	94	
941	0	42873	15703	94	
942	0	42877	15709	94	
943	0	42881	15709	94	
944	0	42883	15711	94	
945	0	42893	15714	94	
946	0	42887	15714	94	
947	0	42893	15715	94	
948	0	42894	15711	94	
949	0	42884	15712	94	
950	0	42879	15710	94	
951	0	42882	15710	94	
952	0	42885	15711	94	
953	0	42875	15709	94	
954	0	42882	15709	94	
955	0	42880	15711	94	
956	0	42881	15710	94	
957	0	42882	15711	94	
958	0	42891	15714	94	
959	0	42887	15716	94	
960	0	42899	15715	94	
961	0	42901	15718	94	
962	0	42899	15722	94	
963	0	42911	15727	94	
964	0	42913	15731	94	
965	0	42927	15738	94	
966	0	42932	15740	94	
967	0	42938	15740	94	
968	0	42940	15745	94	
969	0	42947	15748	94	
970	0	42954	15757	94	
971	0	42955	15753	94	
972	0	42956	15755	94	
973	0	42963	15759	94	
974	0	42964	15761	94	
975	0	42965	15762	94	
976	0	42973	15764	94	
977	0	42968	15765	94	
978	0	42976	15765	94	
979	0	42978	15768	94	
980	0	42979	15765	94	
981	0	42981	15766	94	
982	0	42981	15771	94	
983	0	42978	15765	94	
984	0	42979	15775	94	
985	0	42982	15775	94	
986	0	42983	15775	94	
987	0	42992	15778	94	
988	0	42987	15776	94	
989	0	42990	15781	94	
990	0	42991	15780	94	
991	0	42986	15778	94	
992	0	42983	15780	94	
993	0	42978	15774	94	
994	0	42956	15766	94	
995	0	42942	15756	94	
996	0	42924	15743	94	
997	0	42897	15727	94	
998	0	42870	15710	94	
999	0	42850	15702	94	
1000	0	42836	15693	94	
1001	0	42825	15682	94	
1002	0	42814	15679	94	
1003	0	42812	15677	94	
1004	0	42807	15675	94	
1005	0	42807	15676	94	
1006	0	42812	15678	94	
1007	0	42817	15681	94	
1008	0	42815	15684	94	
1009	0	42826	15684	94	
1010	0	42828	15687	94	
1011	0	42837	15692	94	
1012	0	42840	15694	94	
1013	0	42847	15696	94	
1014	0	42851	15700	94	
1015	0	42850	15704	94	
1016	0	42860	15704	94	
1017	0	42870	15708	94	
1018	0	42873	15707	94	
1019	0	42875	15711	94	
1020	0	42878	15711	94	
1021	0	42879	15707	94	
1022	0	42876	15708	94	
1023	0	42874	15711	94	
1024	0	42867	15708	94	
1025	0	42866	15708	94	
1026	0	42862	15709	94	
1027	0	42860	15707	94	
1028	0	42852	15704	94	
1029	0	42855	15702	94	
1030	0	42854	15704	94	
1031	0	42857	15702	94	
1032	0	42857	15706	94	
1033	0	42857	15710	94	
1034	0	42868	15710	94	
1035	0	42865	15709	94	
1036	0	42870	15712	94	
1037	0	42874	15716	94	
1038	0	42876	15715	94	
1039	0	42880	15721	94	
1040	0	42888	15725	94	
1041	0	42901	15729	94	
1042	0	42905	15730	94	
1043	0	42899	15733	94	
1044	0	42916	15733	94	
1045	0	42910	15739	94	
1046	0	42916	15739	94	
1047	0	42921	15740	94	
1048	0	42925	15744	94	
1049	0	42930	15745	94	
1050	0	42934	15749	94	
1051	0	42930	15748	94	
1052	0	42927	15747	94	
1053	0	42933	15748	94	
1054	0	42936	15753	94	
1055	0	42935	15750	94	
1056	0	42932	15753	94	
1057	0	42926	15752	94	
1058	0	42935	15753	94	
1059	0	42935	15757	94	
1060	0	42934	15759	94	
1061	0	42934	15759	94	
1062	0	42933	15758	94	
1063	0	42934	15757	94	
1064	0	42932	15761	94	
1065	0	42937	15761	94	
1066	0	42935	15755	94	
1067	0	42928	15753	94	
1068	0	42912	15747	94	
1069	0	42899	15739	94	
1070	0	42869	15723	94	
1071	0	42852	15710	94	
1072	0	42824	15699	94	
1073	0	42807	15687	94	
1074	0	42791	15676	94	
1075	0	42773	15670	94	
1076	0	42759	15657	94	
1077	0	42749	15652	94	
1078	0	42749	15650	94	
1079	0	42746	15648	94	
1080	0	42753	15650	94	
1081	0	42758	15655	94	
1082	0	42761	15658	94	
1083	0	42765	15663	94	
1084	0	42764	15662	94	
1085	0	42771	15663	94	
1086	0	42779	15667	94	
1087	0	42787	15669	94	
1088	0	42789	15672	94	
1089	0	42786	15675	94	
1090	0	42790	15679	94	
1091	0	42798	15683	94	
1092	0	42805	15682	94	
1093	0	42809	15688	94	
1094	0	42809	15692	94	
1095	0	42815	15686	94	
1096	0	42806	15686	94	
1097	0	42813	15682	94	
1098	0	42803	15686	94	
1099	0	42800	15684	94	
1100	0	42795	15679	94	
1101	0	42793	15677	94	
1102	0	42792	15680	94	
1103	0	42791	15679	94	
1104	0	42794	15676	94	
1105	0	42793	15676	94	
1106	0	42791	15680	94	
1107	0	42801	15683	94	
1108	0	42802	15683	94	
1109	0	42804	15685	94	
1110	0	42820	15693	94	
1111	0	42820	15696	94	
1112	0	42821	15698	94	
1113	0	42830	15701	94	
1114	0	42830	15704	94	
1115	0	42843	15706	94	
1116	0	42842	15709	94	
1117	0	42845	15715	94	
1118	0	42855	15716	94	
1119	0	42861	15717	94	
1120	0	42859	15719	94	
1121	0	42862	15722	94	
1122	0	42864	15725	94	
1123	0	42873	15727	94	
1124	0	42868	15729	94	
1125	0	42874	15728	94	
1126	0	42874	15730	94	
1127	0	42872	15733	94	
1128	0	42877	15731	94	
1129	0	42871	15734	94	
1130	0	42869	15735	94	
1131	0	42871	15735	94	
1132	0	42878	15734	94	
1133	0	42880	15735	94	
1134	0	42876	15737	94	
1135	0	42879	15740	94	
1136	0	42882	15738	94	
1137	0	42884	15742	94	
1138	0	42886	15743	94	
1139	0	42879	15739	94	
1140	0	42879	15738	94	
1141	0	42866	15736	94	
1142	0	42856	15726	94	
1143	0	42833	15712	94	
1144	0	42812	15704	94	
1145	0	42789	15688	94	
1146	0	42760	15676	94	
1147	0	42741	15662	94	
1148	0	42725	15648	94	
1149	0	42706	15644	94	
1150	0	42700	15638	94	
1151	0	42700	15635	94	
1152	0	42692	15634	94	
1153	0	42693	15637	94	
1154	0	42696	15635	94	
1155	0	42705	15638	94	
1156	0	42703	15639	94	
1157	0	42708	15643	94	
1158	0	42706	15643	94	
1159	0	42711	15644	94	
1160	0	42721	15650	94	
1161	0	42719	15653	94	
1162	0	42724	15656	94	
1163	0	42728	15659	94	
1164	0	42737	15662	94	
1165	0	42748	15665	94	
1166	0	42749	15666	94	
1167	0	42749	15671	94	
1168	0	42747	15667	94	
1169	0	42746	15671	94	
1170	0	42745	15670	94	
1171	0	42749	15668	94	
1172	0	42746	15665	94	
1173	0	42748	15664	94	
1174	0	42734	15663	94	
1175	0	42736	15665	94	
1176	0	42732	15663	94	
1177	0	42736	15664	94	
1178	0	42735	15666	94	
1179	0	42734	15667	94	
1180	0	42740	15669	94	
1181	0	42745	15674	94	
1182	0	42751	15670	94	
1183	0	42755	15671	94	
1184	0	42759	15679	94	
1185	0	42760	15682	94	
1186	0	42768	15683	94	
1187	0	42773	15690	94	
1188	0	42776	15690	94	
1189	0	42784	15694	94	
1190	0	42785	15697	94	
1191	0	42789	15701	94	
1192	0	42798	15700	94	
1193	0	42800	15704	94	
1194	0	42804	15707	94	
1195	0	42810	15710	94	
1196	0	42804	15710	94	
1197	0	42809	15715	94	
1198	0	42807	15712	94	
1199	0	42812	15716	94	
1200	0	42817	15712	94	
1201	0	42811	15716	94	
1202	0	42812	15717	94	
1203	0	42814	15717	94	
1204	0	42817	15716	94	
1205	0	42826	15723	94	
1206	0	42824	15724	94	
1207	0	42821	15722	94	
1208	0	42826	15724	94	
1209	0	42827	15724	94	
1210	0	42829	15728	94	
1211	0	42825	15728	94	
1212	0	42833	15726	94	
1213	0	42834	15729	94	
1214	0	42836	15733	94	
1215	0	42832	15730	94	
1216	0	42827	15730	94	
1217	0	42820	15723	94	
1218	0	42806	15721	94	
1219	0	42788	15709	94	
1220	0	42769	15697	94	
1221	0	42748	15681	94	
1222	0	42713	15665	94	
1223	0	42697	15649	94	
1224	0	42667	15643	94	
1225	0	42657	15634	94	
1226	0	42642	15625	94	
1227	0	42641	15622	94	
1228	0	42637	15620	94	
1229	0	42627	15619	94	
1230	0	42634	15620	94	
1231	0	42637	15620	94	
1232	0	42638	15619	94	
1233	0	42647	15625	94	
1234	0	42642	15629	94	
1235	0	42641	15626	94	
1236	0	42647	15626	94	
1237	0	42651	15631	94	
1238	0	42656	15633	94	
1239	0	42655	15635	94	
1240	0	42660	15641	94	
1241	0	42673	15643	94	
1242	0	42678	15643	94	
1243	0	42677	15649	94	
1244	0	42685	15650	94	
1245	0	42690	15649	94	
1246	0	42683	15653	94	
1247	0	42689	15651	94	
1248	0	42679	15652	94	
1249	0	42684	15648	94	
1250	0	42676	15646	94	
1251	0	42672	15645	94	
1252	0	42675	15647	94	
1253	0	42674	15644	94	
1254	0	42676	15646	94	
1255	0	42673	15647	94	
1256	0	42680	15649	94	
1257	0	42689	15651	94	
1258	0	42688	15656	94	
1259	0	42686	15656	94	
1260	0	42697	15663	94	
1261	0	42700	15665	94	
1262	0	42706	15671	94	
1263	0	42713	15669	94	
1264	0	42721	15675	94	
1265	0	42732	15679	94	
1266	0	42733	15684	94	
1267	0	42733	15687	94	
1268	0	42740	15690	94	
1269	0	42747	15693	94	
1270	0	42749	15693	94	
1271	0	42752	15696	94	
1272	0	42758	15697	94	
1273	0	42758	15699	94	
1274	0	42754	15699	94	
1275	0	42761	15700	94	
1276	0	42760	15701	94	
1277	0	42762	15702	94	
1278	0	42763	15705	94	
1279	0	42757	15706	94	
1280	0	42761	15704	94	
1281	0	42765	15710	94	
1282	0	42764	15707	94	
1283	0	42762	15707	94	
1284	0	42763	15709	94	
1285	0	42762	15712	94	
1286	0	42771	15712	94	
1287	0	42768	15712	94	
1288	0	42769	15713	94	
1289	0	42767	15714	94	
1290	0	42770	15719	94	
1291	0	42781	15720	94	
1292	0	42776	15721	94	
1293	0	42776	15724	94	
1294	0	42784	15723	94	
1295	0	42785	15726	94	
1296	0	42795	15725	94	
1297	0	42796	15731	94	
1298	0	42795	15731	94	
1299	0	42796	15730	94	
1300	0	42789	15726	94	
1301	0	42770	15717	94	
1302	0	42754	15705	94	
1303	0	42729	15692	94	
1304	0	42700	15678	94	
1305	0	42673	15665	94	
1306	0	42655	15651	94	
1307	0	42632	15638	94	
1308	0	42618	15628	94	
1309	0	42601	15624	94	
1310	0	42590	15619	94	
1311	0	42595	15613	94	
1312	0	42578	15610	94	
1313	0	42579	15608	94	
1314	0	42582	15611	94	
1315	0	42584	15616	94	
1316	0	42586	15615	94	
1317	0	42589	15620	94	
1318	0	42592	15616	94	
1319	0	42599	15621	94	
1320	0	42603	15621	94	
1321	0	42605	15619	94	
1322	0	42612	15623	94	
1323	0	42618	15625	94	
1324	0	42612	15628	94	
1325	0	42621	15632	94	
1326	0	42627	15638	94	
1327	0	42626	15636	94	
1328	0	42629	15637	94	
1329	0	42637	15642	94	
1330	0	42630	15640	94	
1331	0	42635	15640	94	
1332	0	42640	15640	94	
1333	0	42632	15639	94	
1334	0	42633	15636	94	
1335	0	42632	15636	94	
1336	0	42631	15639	94	
1337	0	42628	15641	94	
1338	0	42636	15642	94	
1339	0	42639	15645	94	
1340	0	42638	15642	94	
1341	0	42649	15647	94	
1342	0	42649	15650	94	
1343	0	42659	15656	94	
1344	0	42664	15660	94	
1345	0	42665	15658	94	
1346	0	42675	15665	94	
1347	0	42678	15664	94	
1348	0	42684	15671	94	
1349	0	42692	15676	94	
1350	0	42689	15678	94	
1351	0	42698	15680	94	
1352	0	42700	15680	94	
1353	0	42701	15683	94	
1354	0	42705	15688	94	
1355	0	42709	15687	94	
1356	0	42714	15690	94	
1357	0	42711	15693	94	
1358	0	42717	15694	94	
1359	0	42722	15696	94	
1360	0	42727	15693	94	
1361	0	42727	15696	94	
1362	0	42731	15701	94	
1363	0	42729	15700	94	
1364	0	42732	15705	94	
1365	0	42727	15702	94	
1366	0	42734	15705	94	
1367	0	42733	15706	94	
1368	0	42736	15705	94	
1369	0	42741	15707	94	
1370	0	42739	15707	94	
1371	0	42740	15712	94	
1372	0	42746	15718	94	
1373	0	42745	15714	94	
1374	0	42750	15717	94	
1375	0	42747	15717	94	
1376	0	42749	15719	94	
1377	0	42751	15715	94	
1378	0	42757	15719	94	
1379	0	42760	15724	94	
1380	0	42765	15726	94	
1381	0	42764	15727	94	
1382	0	42769	15729	94	
1383	0	42769	15729	94	
1384	0	42775	15737	94	
1385	0	42777	15736	94	
1386	0	42779	15736	94	
1387	0	42776	15734	94	
1388	0	42777	15738	94	
1389	0	42765	15729	94	
1390	0	42745	15721	94	
1391	0	42724	15706	94	
1392	0	42703	15693	94	
1393	0	42670	15677	94	
1394	0	42645	15661	94	
1395	0	42620	15647	94	
1396	0	42603	15638	94	
1397	0	42584	15631	94	
1398	0	42573	15624	94	
1399	0	42562	15619	94	
1400	0	42560	15615	94	
1401	0	42552	15612	94	
1402	0	42551	15616	94	
1403	0	42554	15617	94	
1404	0	42557	15615	94	
1405	0	42566	15618	94	
1406	0	42568	15620	94	
1407	0	42575	15621	94	
1408	0	42579	15623	94	
1409	0	42580	15627	94	
1410	0	42585	15631	94	
1411	0	42592	15634	94	
1412	0	42596	15636	94	
1413	0	42605	15641	94	
1414	0	42611	15640	94	
1415	0	42618	15645	94	
1416	0	42623	15646	94	
1417	0	42625	15643	94	
1418	0	42624	15646	94	
1419	0	42631	15647	94	
1420	0	42631	15646	94	
1421	0	42634	15645	94	
1422	0	42631	15646	94	
1423	0	42625	15646	94	
1424	0	42621	15645	94	
1425	0	42629	15643	94	
1426	0	42624	15646	94	
1427	0	42630	15647	94	
1428	0	42636	15649	94	
1429	0	42641	15649	94	
1430	0	42639	15651	94	
1431	0	42648	15657	94	
1432	0	42656	15659	94	
1433	0	42663	15662	94	
1434	0	42670	15665	94	
1435	0	42673	15671	94	
1436	0	42679	15671	94	
1437	0	42678	15675	94	
1438	0	42692	15680	94	
1439	0	42692	15683	94	
1440	0	42697	15684	94	
1441	0	42706	15688	94	
1442	0	42705	15691	94	
1443	0	42708	15694	94	
1444	0	42718	15697	94	
1445	0	42720	15698	94	
1446	0	42718	15699	94	
1447	0	42725	15702	94	
1448	0	42730	15702	94	
1449	0	42726	15701	94	
1450	0	42726	15703	94	
1451	0	42732	15702	94	
1452	0	42731	15702	94	
1453	0	42735	15704	94	
1454	0	42741	15709	94	
1455	0	42734	15710	94	
1456	0	42734	15712	94	
1457	0	42744	15710	94	
1458	0	42738	15710	94	
1459	0	42742	15714	94	
1460	0	42751	15721	94	
1461	0	42751	15720	94	
1462	0	42753	15720	94	
1463	0	42758	15720	94	
1464	0	42753	15719	94	
1465	0	42756	15721	94	
1466	0	42757	15724	94	
1467	0	42759	15726	94	
1468	0	42764	15728	94	
1469	0	42767	15733	94	
1470	0	42765	15734	94	
1471	0	42772	15733	94	
1472	0	42773	15736	94	
1473	0	42786	15738	94	
1474	0	42781	15739	94	
1475	0	42787	15743	94	
1476	0	42789	15745	94	
1477	0	42786	15742	94	
1478	0	42783	15739	94	
1479	0	42764	15738	94	
1480	0	42751	15726	94	
1481	0	42728	15708	94	
1482	0	42702	15697	94	
1483	0	42674	15681	94	
1484	0	42643	15669	94	
1485	0	42627	15657	94	
1486	0	42610	15644	94	
1487	0	42589	15637	94	
1488	0	42585	15633	94	
1489	0	42580	15629	94	
1490	0	42573	15629	94	
1491	0	42567	15624	94	
1492	0	42570	15625	94	
1493	0	42572	15629	94	
1494	0	42578	15633	94	
1495	0	42580	15633	94	
1496	0	42587	15637	94	
1497	0	42593	15639	94	
1498	0	42592	15641	94	
1499	0	42597	15642	94	
1500	0	42604	15643	94	
1501	0	42614	15645	94	
1502	0	42616	15652	94	
1503	0	42624	15656	94	
1504	0	42621	15658	94	
1505	0	42629	15658	94	
1506	0	42625	15657	94	
1507	0	42628	15657	94	
1508	0	42627	15658	94	
1509	0	42628	15655	94	
1510	0	42629	15653	94	
1511	0	42622	15650	94	
1512	0	42622	15652	94	
1513	0	42616	15653	94	
1514	0	42615	15650	94	
1515	0	42618	15653	94	
1516	0	42618	15654	94	
1517	0	42620	15654	94	
1518	0	42624	15655	94	
1519	0	42631	15658	94	
1520	0	42637	15657	94	
1521	0	42636	15663	94	
1522	0	42640	15663	94	
1523	0	42649	15668	94	
1524	0	42654	15670	94	
1525	0	42660	15674	94	
1526	0	42665	15676	94	
1527	0	42671	15679	94	
1528	0	42677	15684	94	
1529	0	42686	15683	94	
1530	0	42691	15694	94	
1531	0	42695	15695	94	
1532	0	42699	15701	94	
1533	0	42709	15703	94	
1534	0	42707	15703	94	
1535	0	42711	15702	94	
1536	0	42711	15705	94	
1537	0	42719	15710	94	
1538	0	42716	15709	94	
1539	0	42717	15708	94	
1540	0	42722	15710	94	
1541	0	42722	15712	94	
1542	0	42720	15711	94	
1543	0	42718	15714	94	
1544	0	42728	15716	94	
1545	0	42728	15714	94	
1546	0	42729	15718	94	
1547	0	42728	15718	94	
1548	0	42729	15719	94	
1549	0	42734	15714	94	
1550	0	42737	15719	94	
1551	0	42735	15721	94	
1552	0	42739	15722	94	
1553	0	42739	15725	94	
1554	0	42742	15725	94	
1555	0	42746	15728	94	
1556	0	42753	15731	94	
1557	0	42757	15736	94	
1558	0	42760	15732	94	
1559	0	42762	15743	94	
1560	0	42768	15745	94	
1561	0	42772	15742	94	
1562	0	42778	15749	94	
1563	0	42784	15745	94	
1564	0	42771	15750	94	
1565	0	42772	15745	94	
1566	0	42761	15737	94	
1567	0	42739	15724	94	
1568	0	42716	15715	94	
1569	0	42694	15700	94	
1570	0	42659	15685	94	
1571	0	42638	15673	94	
1572	0	42612	15662	94	
1573	0	42594	15648	94	
1574	0	42581	15644	94	
1575	0	42566	15638	94	
1576	0	42565	15631	94	
1577	0	42556	15632	94	
1578	0	42561	15631	94	
1579	0	42557	15632	94	
1580	0	42566	15632	94	
1581	0	42568	15633	94	
1582	0	42568	15636	94	
1583	0	42579	15640	94	
1584	0	42577	15643	94	
1585	0	42588	15645	94	
1586	0	42594	15648	94	
1587	0	42589	15652	94	
1588	0	42602	15653	94	
1589	0	42609	15657	94	
1590	0	42615	15659	94	
1591	0	42613	15662	94	
1592	0	42627	15662	94	
1593	0	42626	15665	94	
1594	0	42627	15662	94	
1595	0	42629	15663	94	
1596	0	42626	15662	94	
1597	0	42621	15666	94	
1598	0	42620	15663	94	
1599	0	42616	15663	94	
1600	0	42623	15658	94	
1601	0	42613	15657	94	
1602	0	42621	15660	94	
1603	0	42621	15660	94	
1604	0	42622	15661	94	
1605	0	42621	15661	94	
1606	0	42628	15667	94	
1607	0	42640	15669	94	
1608	0	42645	15673	94	
1609	0	42644	15674	94	
1610	0	42656	15678	94	
1611	0	42656	15680	94	
1612	0	42663	15686	94	
1613	0	42674	15688	94	
1614	0	42675	15689	94	
1615	0	42681	15695	94	
1616	0	42687	15698	94	
1617	0	42692	15702	94	
1618	0	42704	15704	94	
1619	0	42703	15708	94	
1620	0	42705	15710	94	
1621	0	42712	15711	94	
1622	0	42712	15714	94	
1623	0	42718	15716	94	
1624	0	42721	15717	94	
1625	0	42716	15718	94	
1626	0	42720	15717	94	
1627	0	42724	15717	94	
1628	0	42724	15720	94	
1629	0	42724	15721	94	
1630	0	42722	15720	94	
1631	0	42726	15721	94	
1632	0	42728	15724	94	
1633	0	42728	15725	94	
1634	0	42729	15729	94	
1635	0	42731	15732	94	
1636	0	42733	15729	94	
1637	0	42734	15731	94	
1638	0	42741	15734	94	
1639	0	42743	15727	94	
1640	0	42745	15735	94	
1641	0	42744	15732	94	
1642	0	42746	15737	94	
1643	0	42748	15740	94	
1644	0	42750	15743	94	
1645	0	42755	15738	94	
1646	0	42766	15742	94	
1647	0	42773	15749	94	
1648	0	42774	15754	94	
1649	0	42778	15753	94	
1650	0	42780	15751	94	
1651	0	42777	15757	94	
1652	0	42771	15751	94	
1653	0	42761	15747	94	
1654	0	42747	15738	94	
1655	0	42722	15725	94	
1656	0	42701	15708	94	
1657	0	42669	15692	94	
1658	0	42643	15679	94	
1659	0	42608	15663	94	
1660	0	42590	15654	94	
1661	0	42568	15638	94	
1662	0	42561	15637	94	
1663	0	42550	15635	94	
1664	0	42547	15628	94	
1665	0	42548	15632	94	
1666	0	42548	15630	94	
1667	0	42547	15631	94	
1668	0	42551	15631	94	
1669	0	42552	15634	94	
1670	0	42560	15638	94	
1671	0	42565	15638	94	
1672	0	42561	15635	94	
1673	0	42574	15639	94	
1674	0	42578	15645	94	
1675	0	42582	15644	94	
1676	0	42591	15649	94	
1677	0	42589	15654	94	
1678	0	42602	15655	94	
1679	0	42605	15658	94	
1680	0	42606	15657	94	
1681	0	42608	15657	94	
1682	0	42611	15659	94	
1683	0	42606	15658	94	
1684	0	42611	15661	94	
1685	0	42610	15656	94	
1686	0	42608	15655	94	
1687	0	42608	15652	94	
1688	0	42603	15653	94	
1689	0	42609	15656	94	
1690	0	42604	15655	94	
1691	0	42611	15654	94	
1692	0	42616	15659	94	
1693	0	42615	15656	94	
1694	0	42632	15662	94	
1695	0	42625	15665	94	
1696	0	42639	15668	94	
1697	0	42648	15673	94	
1698	0	42652	15676	94	
1699	0	42653	15679	94	
1700	0	42660	15681	94	
1701	0	42670	15685	94	
1702	0	42679	15689	94	
1703	0	42680	15694	94	
1704	0	42685	15698	94	
1705	0	42696	15700	94	
1706	0	42699	15700	94	
1707	0	42705	15704	94	
1708	0	42707	15703	94	
1709	0	42705	15706	94	
1710	0	42711	15708	94	
1711	0	42712	15710	94	
1712	0	42718	15713	94	
1713	0	42716	15711	94	
1714	0	42719	15711	94	
1715	0	42723	15715	94	
1716	0	42723	15714	94	
1717	0	42727	15714	94	
1718	0	42731	15716	94	
1719	0	42735	15717	94	
1720	0	42734	15720	94	
1721	0	42737	15722	94	
1722	0	42742	15722	94	
1723	0	42742	15724	94	
1724	0	42748	15727	94	
1725	0	42744	15725	94	
1726	0	42748	15728	94	
1727	0	42756	15729	94	
1728	0	42754	15731	94	
1729	0	42759	15731	94	
1730	0	42762	15736	94	
1731	0	42767	15736	94	
1732	0	42770	15735	94	
1733	0	42769	15737	94	
1734	0	42774	15737	94	
1735	0	42779	15743	94	
1736	0	42782	15746	94	
1737	0	42782	15750	94	
1738	0	42785	15752	94	
1739	0	42791	15748	94	
1740	0	42794	15751	94	
1741	0	42791	15750	94	
1742	0	42782	15745	94	
1743	0	42765	15739	94	
1744	0	42748	15723	94	
1745	0	42713	15708	94	
1746	0	42691	15694	94	
1747	0	42669	15676	94	
1748	0	42633	15665	94	
1749	0	42616	15654	94	
1750	0	42600	15645	94	
1751	0	42587	15638	94	
1752	0	42582	15633	94	
1753	0	42572	15630	94	
1754	0	42569	15629	94	
1755	0	42568	15627	94	
1756	0	42580	15631	94	
1757	0	42583	15632	94	
1758	0	42582	15633	94	
1759	0	42591	15634	94	
1760	0	42585	15638	94	
1761	0	42591	15638	94	
1762	0	42601	15640	94	
1763	0	42603	15643	94	
1764	0	42607	15643	94	
1765	0	42609	15647	94	
1766	0	42626	15652	94	
1767	0	42625	15654	94	
1768	0	42626	15656	94	
1769	0	42632	15655	94	
1770	0	42638	15655	94	
1771	0	42638	15659	94	
1772	0	42641	15660	94	
1773	0	42639	15657	94	
1774	0	42638	15659	94	
1775	0	42640	15660	94	
1776	0	42639	15662	94	
1777	0	42643	15657	94	
1778	0	42641	15661	94	
1779	0	42639	15661	94	
1780	0	42648	15659	94	
1781	0	42643	15661	94	
1782	0	42656	15664	94	
1783	0	42662	15669	94	
1784	0	42660	15669	94	
1785	0	42663	15671	93	
1786	0	42674	15674	93	
1787	0	42683	15675	93	
1788	0	42686	15682	93	
1789	0	42690	15683	93	
1790	0	42696	15686	93	
1791	0	42699	15689	93	
1792	0	42713	15694	93	
1793	0	42723	15696	93	
1794	0	42728	15697	93	
1795	0	42728	15703	93	
1796	0	42730	15704	93	
1797	0	42736	15707	93	
1798	0	42741	15709	93	
1799	0	42741	15710	93	
1800	0	42752	15711	93	
1801	0	42757	15715	93	
1802	0	42759	15715	93	
1803	0	42758	15717	93	
1804	0	42764	15715	93	
1805	0	42763	15720	93	
1806	0	42767	15723	93	
1807	0	42771	15723	93	
1808	0	42774	15725	93	
1809	0	42777	15726	93	
1810	0	42777	15723	93	
1811	0	42774	15727	93	
1812	0	42779	15727	93	
1813	0	42785	15727	93	
1814	0	42783	15730	93	
1815	0	42791	15732	93	
1816	0	42792	15732	93	
1817	0	42798	15736	93	
1818	0	42802	15734	93	
1819	0	42806	15736	93	
1820	0	42808	15741	93	
1821	0	42808	15741	93	
1822	0	42818	15742	93	
1823	0	42817	15748	93	
1824	0	42825	15749	93	
1825	0	42825	15746	93	
1826	0	42829	15751	93	
1827	0	42837	15755	93	
1828	0	42839	15756	93	
1829	0	42836	15756	93	
1830	0	42833	15756	93	
1831	0	42826	15751	93	
1832	0	42808	15740	93	
1833	0	42793	15729	93	
1834	0	42770	15712	93	
1835	0	42741	15699	93	
1836	0	42714	15686	93	
1837	0	42686	15673	93	
1838	0	42669	15659	93	
1839	0	42655	15652	93	
1840	0	42645	15644	93	
1841	0	42632	15639	93	
1842	0	42631	15636	93	
1843	0	42630	15637	93	
1844	0	42631	15637	93	
1845	0	42627	15638	93	
1846	0	42633	15638	93	
1847	0	42640	15640	93	
1848	0	42639	15643	93	
1849	0	42648	15644	93	
1850	0	42651	15645	93	
1851	0	42655	15644	93	
1852	0	42662	15645	93	
1853	0	42667	15653	93	
1854	0	42669	15654	93	
1855	0	42674	15658	93	
1856	0	42683	15658	93	
1857	0	42687	15664	93	
1858	0	42693	15662	93	
1859	0	42701	15663	93	
1860	0	42697	15665	93	
1861	0	42694	15669	93	
1862	0	42701	15664	93	
1863	0	42695	15664	93	
1864	0	42692	15667	93	
1865	0	42696	15663	93	
1866	0	42687	15662	93	
1867	0	42695	15662	93	
1868	0	42692	15667	93	
1869	0	42696	15666	93	
1870	0	42705	15663	93	
1871	0	42706	15670	93	
1872	0	42710	15673	93	
1873	0	42717	15674	93	
1874	0	42722	15675	93	
1875	0	42730	15683	93	
1876	0	42730	15681	93	
1877	0	42735	15686	93	
1878	0	42746	15690	93	
1879	0	42754	15690	93	
1880	0	42763	15694	93	
1881	0	42759	15701	93	
1882	0	42763	15701	93	
1883	0	42777	15705	93	
1884	0	42775	15707	93	
1885	0	42785	15707	93	
1886	0	42791	15711	93	
1887	0	42787	15715	93	
1888	0	42797	15716	93	
1889	0	42804	15718	93	
1890	0	42804	15717	93	
1891	0	42801	15721	93	
1892	0	42801	15719	93	
1893	0	42813	15724	93	
1894	0	42815	15725	93	
1895	0	42814	15726	93	
1896	0	42815	15726	93	
1897	0	42814	15728	93	
1898	0	42827	15732	93	
1899	0	42822	15732	93	
1900	0	42823	15734	93	
1901	0	42830	15736	93	
1902	0	42831	15735	93	
1903	0	42833	15738	93	
1904	0	42842	15738	93	
1905	0	42836	15739	93	
1906	0	42844	15744	93	
1907	0	42850	15739	93	
1908	0	42850	15742	93	
1909	0	42858	15745	93	
1910	0	42859	15748	93	
1911	0	42863	15749	93	
1912	0	42858	15751	93	
1913	0	42866	15753	93	
1914	0	42869	15756	93	
1915	0	42873	15754	93	
1916	0	42883	15761	93	
1917	0	42880	15757	93	
1918	0	42884	15760	93	
1919	0	42891	15764	93	
1920	0	42892	15762	93	
1921	0	42881	15759	93	
1922	0	42872	15755	93	
1923	0	42851	15745	93	
1924	0	42832	15728	93	
1925	0	42806	15712	93	
1926	0	42780	15696	93	
1927	0	42749	15681	93	
1928	0	42727	15670	93	
1929	0	42716	15662	93	
1930	0	42703	15654	93	
1931	0	42685	15648	93	
1932	0	42684	15645	93	
1933	0	42679	15641	93	
1934	0	42677	15644	93	
1935	0	42681	15646	93	
1936	0	42681	15644	93	
1937	0	42692	15644	93	
1938	0	42695	15648	93	
1939	0	42702	15651	93	
1940	0	42703	15650	93	
1941	0	42711	15654	93	
1942	0	42719	15652	93	
1943	0	42718	15658	93	
1944	0	42716	15662	93	
1945	0	42731	15663	93	
1946	0	42732	15666	93	
1947	0	42740	15670	93	
1948	0	42747	15672	93	
1949	0	42741	15671	93	
1950	0	42747	15672	93	
1951	0	42741	15671	93	
1952	0	42747	15669	93	
1953	0	42749	15670	93	
1954	0	42742	15672	93	
1955	0	42746	15667	93	
1956	0	42742	15669	93	
1957	0	42742	15667	93	
1958	0	42746	15667	93	
1959	0	42744	15671	93	
1960	0	42742	15669	93	
1961	0	42750	15673	93	
1962	0	42754	15674	93	
1963	0	42755	15677	93	
1964	0	42761	15680	93	
1965	0	42762	15684	93	
1966	0	42772	15687	93	
1967	0	42781	15691	93	
1968	0	42784	15693	93	
1969	0	42787	15694	93	
1970	0	42796	15697	93	
1971	0	42798	15702	93	
1972	0	42806	15703	93	
1973	0	42818	15705	93	
1974	0	42818	15710	93	
1975	0	42819	15714	93	
1976	0	42828	15715	93	
1977	0	42824	15717	93	
1978	0	42828	15719	93	
1979	0	42834	15720	93	
1980	0	42838	15720	93	
1981	0	42840	15726	93	
1982	0	42842	15722	93	
1983	0	42854	15723	93	
1984	0	42852	15731	93	
1985	0	42856	15725	93	
1986	0	42851	15730	93	
1987	0	42856	15728	93	
1988	0	42860	15731	93	
1989	0	42859	15730	93	
1990	0	42865	15731	93	
1991	0	42868	15737	93	
1992	0	42868	15735	93	
1993	0	42868	15738	93	
1994	0	42878	15739	93	
1995	0	42872	15741	93	
1996	0	42883	15743	93	
1997	0	42881	15746	93	
1998	0	42889	15746	93	
1999	0	42895	15752	93	
2000	0	42894	15749	93	
2001	0	42897	15753	93	
2002	0	42902	15753	93	
2003	0	42905	15756	93	
2004	0	42911	15757	93	
2005	0	42913	15757	93	
2006	0	42916	15762	93	
2007	0	42919	15765	93	
2008	0	42926	15764	93	
2009	0	42925	15765	93	
2010	0	42930	15770	93	
2011	0	42931	15767	93	
2012	0	42924	15767	93	
2013	0	42916	15757	93	
2014	0	42895	15743	93	
2015	0	42876	15734	93	
2016	0	42850	15717	93	
2017	0	42823	15702	93	
2018	0	42795	15685	93	
2019	0	42775	15676	93	
2020	0	42752	15662	93	
2021	0	42739	15655	93	
2022	0	42730	15649	93	
2023	0	42728	15650	93	
2024	0	42714	15644	93	
2025	0	42715	15646	93	
2026	0	42720	15643	93	
2027	0	42715	15643	93	
2028	0	42722	15643	93	
2029	0	42728	15645	93	
2030	0	42730	15647	93	
2031	0	42735	15650	93	
2032	0	42735	15649	93	
2033	0	42742	15654	93	
2034	0	42742	15657	93	
2035	0	42746	15656	93	
2036	0	42748	15659	93	
2037	0	42756	15662	93	
2038	0	42763	15664	93	
2039	0	42763	15666	93	
2040	0	42761	15667	93	
2041	0	42764	15669	93	
2042	0	42766	15666	93	
2043	0	42761	15665	93	
2044	0	42767	15665	93	
2045	0	42763	15664	93	
2046	0	42763	15663	93	
2047	0	42755	15661	93	
2048	0	42753	15664	93	
2049	0	42748	15660	93	
2050	0	42756	15664	93	
2051	0	42759	15666	93	
2052	0	42758	15666	93	
2053	0	42765	15668	93	
2054	0	42766	15669	93	
2055	0	42768	15673	93	
2056	0	42772	15674	93	
2057	0	42778	15675	93	
2058	0	42790	15682	93	
2059	0	42793	15687	93	
2060	0	42797	15687	93	
2061	0	42805	15690	93	
2062	0	42808	15696	93	
2063	0	42813	15699	93	
2064	0	42816	15704	93	
2065	0	42821	15703	93	
2066	0	42828	15708	93	
2067	0	42833	15709	93	
2068	0	42839	15711	93	
2069	0	42840	15711	93	
2070	0	42840	15712	93	
2071	0	42848	15716	93	
2072	0	42849	15710	93	
2073	0	42854	15716	93	
2074	0	42851	15717	93	
2075	0	42858	15716	93	
2076	0	42859	15716	93	
2077	0	42859	15722	93	
2078	0	42865	15718	93	
2079	0	42868	15722	93	
2080	0	42870	15722	93	
2081	0	42867	15726	93	
2082	0	42872	15724	93	
2083	0	42877	15725	93	
2084	0	42876	15726	93	
2085	0	42881	15729	94	
2086	0	42883	15732	94	
2087	0	42885	15734	94	
2088	0	42887	15734	94	
2089	0	42896	15739	94	
2090	0	42898	15741	94	
2091	0	42898	15740	94	
2092	0	42903	15747	94	
2093	0	42914	15747	94	
2094	0	42911	15751	94	
2095	0	42910	15746	94	
2096	0	42916	15750	94	
2097	0	42923	15754	94	
2098	0	42930	15754	94	
2099	0	42932	15758	94	
2100	0	42934	15758	94	
2101	0	42935	15757	94	
2102	0	42936	15758	94	
2103	0	42927	15752	94	
2104	0	42909	15745	94	
2105	0	42887	15732	94	
2106	0	42859	15716	94	
2107	0	42830	15703	94	
2108	0	42808	15684	94	
2109	0	42787	15673	94	
2110	0	42765	15660	94	
2111	0	42755	15654	94	
2112	0	42740	15645	94	
2113	0	42737	15641	94	
2114	0	42732	15639	94	
2115	0	42723	15639	94	
2116	0	42723	15635	94	
2117	0	42720	15639	94	
2118	0	42729	15642	94	
2119	0	42737	15647	94	
2120	0	42739	15647	94	
2121	0	42744	15648	94	
2122	0	42749	15649	94	
2123	0	42752	15650	94	
2124	0	42752	15651	94	
2125	0	42757	15653	94	
2126	0	42761	15657	94	
2127	0	42770	15659	94	
2128	0	42769	15663	94	
2129	0	42774	15665	94	
2130	0	42780	15667	94	
2131	0	42775	15668	94	
2132	0	42778	15667	94	
2133	0	42776	15665	94	
2134	0	42773	15662	94	
2135	0	42773	15664	94	
2136	0	42764	15660	94	
2137	0	42766	15660	94	
2138	0	42766	15653	94	
2139	0	42765	15657	94	
2140	0	42762	15657	94	
2141	0	42770	15662	94	
2142	0	42762	15661	94	
2143	0	42766	15660	94	
2144	0	42776	15663	94	
2145	0	42776	15667	94	
2146	0	42784	15671	94	
2147	0	42786	15675	94	
2148	0	42796	15680	94	
2149	0	42803	15679	94	
2150	0	42808	15682	94	
2151	0	42819	15687	94	
2152	0	42818	15691	94	
2153	0	42826	15691	94	
2154	0	42824	15693	94	
2155	0	42832	15695	94	
2156	0	42833	15699	94	
2157	0	42840	15702	94	
2158	0	42842	15704	94	
2159	0	42847	15707	94	
2160	0	42843	15711	94	
2161	0	42846	15710	94	
2162	0	42847	15710	94	
2163	0	42851	15711	94	
2164	0	42852	15711	94	
2165	0	42855	15711	94	
2166	0	42859	15710	94	
2167	0	42856	15712	94	
2168	0	42860	15717	94	
2169	0	42858	15715	94	
2170	0	42858	15716	94	
2171	0	42863	15720	94	
2172	0	42864	15718	94	
2173	0	42866	15720	94	
2174	0	42869	15720	94	
2175	0	42870	15717	94	
2176	0	42871	15722	94	
2177	0	42879	15723	94	
2178	0	42876	15724	94	
2179	0	42879	15728	94	
2180	0	42883	15728	94	
2181	0	42893	15733	94	
2182	0	42891	15735	94	
2183	0	42898	15733	94	
2184	0	42898	15737	94	
2185	0	42906	15739	94	
2186	0	42909	15738	94	
2187	0	42908	15739	94	
2188	0	42902	15739	94	
2189	0	42900	15738	94	
2190	0	42892	15728	94	
2191	0	42870	15718	94	
2192	0	42842	15703	94	
2193	0	42818	15689	94	
2194	0	42793	15675	94	
2195	0	42762	15661	94	
2196	0	42751	15650	94	
2197	0	42732	15638	94	
2198	0	42725	15635	94	
2199	0	42715	15630	94	
2200	0	42705	15622	94	
2201	0	42701	15621	94	
2202	0	42696	15623	94	
2203	0	42697	15621	94	
2204	0	42701	15625	94	
2205	0	42700	15630	94	
2206	0	42705	15627	94	
2207	0	42705	15627	94	
2208	0	42708	15630	94	
2209	0	42716	15631	94	
2210	0	42714	15632	94	
2211	0	42716	15633	94	
2212	0	42721	15638	94	
2213	0	42728	15639	94	
2214	0	42735	15643	94	
2215	0	42736	15646	94	
2216	0	42742	15647	94	
2217	0	42742	15648	94	
2218	0	42738	15650	94	
2219	0	42736	15650	94	
2220	0	42741	15646	94	
2221	0	42731	15648	94	
2222	0	42739	15646	94	
2223	0	42737	15643	94	
2224	0	42736	15643	94	
2225	0	42731	15642	94	
2226	0	42726	15644	94	
2227	0	42730	15646	94	
2228	0	42731	15647	94	
2229	0	42735	15648	94	
2230	0	42737	15650	94	
2231	0	42746	15656	94	
2232	0	42746	15658	94	
2233	0	42755	15663	94	
2234	0	42754	15667	94	
2235	0	42761	15670	94	
2236	0	42769	15671	94	
2237	0	42775	15677	94	
2238	0	42780	15682	94	
2239	0	42789	15680	94	
2240	0	42786	15685	94	
2241	0	42799	15690	94	
2242	0	42799	15688	94	
2243	0	42808	15695	94	
2244	0	42809	15694	94	
2245	0	42809	15695	94	
2246	0	42816	15695	94	
2247	0	42812	15700	94	
2248	0	42822	15700	94	
2249	0	42823	15701	94	
2250	0	42826	15704	94	
2251	0	42823	15705	94	
2252	0	42821	15704	94	
2253	0	42828	15706	94	
2254	0	42829	15703	94	
2255	0	42826	15704	94	
2256	0	42836	15704	94	
2257	0	42831	15706	94	
2258	0	42835	15707	94	
2259	0	42837	15706	94	
2260	0	42837	15706	94	
2261	0	42840	15711	94	
2262	0	42838	15712	94	
2263	0	42842	15710	94	
2264	0	42838	15711	94	
2265	0	42838	15716	94	
2266	0	42846	15716	94	
2267	0	42848	15719	94	
2268	0	42857	15717	94	
2269	0	42854	15721	94	
2270	0	42855	15725	94	
2271	0	42863	15727	94	
2272	0	42864	15730	94	
2273	0	42866	15731	94	
2274	0	42864	15732	94	
2275	0	42879	15732	94	
2276	0	42872	15729	94	
2277	0	42863	15724	94	
2278	0	42843	15715	94	
2279	0	42824	15702	94	
2280	0	42799	15688	94	
2281	0	42772	15676	94	
2282	0	42745	15662	94	
2283	0	42726	15645	94	
2284	0	42701	15637	94	
2285	0	42686	15631	94	
2286	0	42675	15623	94	
2287	0	42671	15621	94	
2288	0	42661	15619	94	
2289	0	42658	15616	94	
2290	0	42653	15615	94	
2291	0	42667	15617	94	
2292	0	42669	15617	94	
2293	0	42668	15623	94	
2294	0	42677	15625	94	
2295	0	42683	15628	94	
2296	0	42685	15626	94	
2297	0	42683	15626	94	
2298	0	42686	15629	94	
2299	0	42690	15631	94	
2300	0	42698	15634	94	
2301	0	42702	15636	94	
2302	0	42712	15641	94	
2303	0	42709	15647	94	
2304	0	42718	15646	94	
2305	0	42718	15646	94	
2306	0	42713	15645	94	
2307	0	42713	15646	94	
2308	0	42711	15644	94	
2309	0	42706	15644	94	
2310	0	42709	15639	94	
2311	0	42704	15639	94	
2312	0	42702	15640	94	
2313	0	42706	15640	94	
2314	0	42709	15640	94	
2315	0	42701	15642	94	
2316	0	42712	15642	94	
2317	0	42714	15644	94	
2318	0	42720	15650	94	
2319	0	42721	15650	94	
2320	0	42732	15657	94	
2321	0	42737	15657	94	
2322	0	42742	15664	94	
2323	0	42746	15669	94	
2324	0	42754	15671	94	
2325	0	42757	15674	94	
2326	0	42766	15676	94	
2327	0	42769	15678	94	
2328	0	42772	15682	94	
2329	0	42779	15688	94	
2330	0	42786	15690	94	
2331	0	42783	15689	94	
2332	0	42790	15690	94	
2333	0	42793	15691	94	
2334	0	42794	15694	94	
2335	0	42795	15694	94	
2336	0	42793	15697	94	
2337	0	42801	15697	94	
2338	0	42804	15699	94	
2339	0	42810	15701	94	
2340	0	42807	15703	94	
2341	0	42811	15703	94	
2342	0	42813	15704	94	
2343	0	42812	15706	94	
2344	0	42809	15707	94	
2345	0	42818	15707	94	
2346	0	42819	15711	94	
2347	0	42820	15709	94	
2348	0	42820	15709	94	
2349	0	42825	15710	94	
2350	0	42819	15713	94	
2351	0	42822	15710	94	
2352	0	42829	15717	94	
2353	0	42835	15714	94	
2354	0	42835	15716	94	
2355	0	42837	15716	94	
2356	0	42828	15718	94	
2357	0	42837	15719	94	
2358	0	42841	15721	94	
2359	0	42843	15725	94	
2360	0	42846	15726	94	
2361	0	42845	15727	94	
2362	0	42851	15731	94	
2363	0	42851	15730	94	
2364	0	42852	15727	94	
2365	0	42843	15725	94	
2366	0	42835	15721	94	
2367	0	42811	15706	94	
2368	0	42789	15692	94	
2369	0	42758	15675	94	
2370	0	42733	15661	94	
2371	0	42704	15644	94	
2372	0	42672	15632	94	
2373	0	42652	15624	94	
2374	0	42634	15612	94	
2375	0	42632	15608	94	
2376	0	42612	15600	94	
2377	0	42611	15597	94	
2378	0	42614	15597	94	
2379	0	42611	15594	94	
2380	0	42606	15597	94	
2381	0	42607	15595	94	
2382	0	42605	15598	94	
2383	0	42613	15595	94	
2384	0	42610	15597	94	
2385	0	42615	15599	94	
2386	0	42606	15599	94	
2387	0	42614	15601	94	
2388	0	42621	15602	94	
2389	0	42627	15606	94	
2390	0	42630	15603	94	
2391	0	42626	15606	94	
2392	0	42630	15607	94	
2393	0	42630	15609	94	
2394	0	42631	15612	94	
2395	0	42634	15611	94	
2396	0	42638	15611	94	
2397	0	42633	15615	94	
2398	0	42626	15606	94	
2399	0	42626	15605	94	
2400	0	42625	15605	94	
2401	0	42618	15604	94	
2402	0	42623	15607	94	
2403	0	42626	15609	94	
2404	0	42631	15607	94	
2405	0	42634	15610	94	
2406	0	42635	15610	94	
2407	0	42646	15615	94	
2408	0	42639	15617	94	
2409	0	42651	15617	94	
2410	0	42648	15619	94	
2411	0	42657	15624	94	
2412	0	42663	15628	94	
2413	0	42669	15634	94	
2414	0	42676	15638	94	
2415	0	42685	15644	94	
2416	0	42693	15647	94	
2417	0	42703	15650	94	
2418	0	42704	15651	94	
2419	0	42710	15656	94	
2420	0	42711	15655	94	
2421	0	42720	15653	94	
2422	0	42726	15658	94	
2423	0	42723	15661	94	
2424	0	42725	15661	94	
2425	0	42724	15664	94	
2426	0	42723	15662	94	
2427	0	42735	15664	94	
2428	0	42733	15665	94	
2429	0	42731	15668	94	
2430	0	42738	15672	94	
2431	0	42741	15673	94	
2432	0	42749	15674	94	
2433	0	42747	15671	94	
2434	0	42755	15678	94	
2435	0	42750	15676	94	
2436	0	42756	15678	94	
2437	0	42759	15677	94	
2438	0	42757	15679	94	
2439	0	42763	15682	94	
2440	0	42771	15681	94	
2441	0	42769	15686	94	
2442	0	42771	15689	94	
2443	0	42775	15691	94	
2444	0	42775	15693	94	
2445	0	42776	15690	94	
2446	0	42786	15695	94	
2447	0	42781	15696	94	
2448	0	42796	15700	94	
2449	0	42802	15705	94	
2450	0	42805	15709	94	
2451	0	42805	15708	94	
2452	0	42808	15709	94	
2453	0	42806	15709	94	
2454	0	42804	15707	94	
2455	0	42790	15702	94	
2456	0	42772	15690	94	
2457	0	42753	15678	94	
2458	0	42725	15663	94	
2459	0	42695	15646	94	
2460	0	42675	15638	94	
2461	0	42650	15621	94	
2462	0	42632	15614	94	
2463	0	42618	15606	94	
2464	0	42606	15600	94	
2465	0	42599	15598	94	
2466	0	42586	15593	94	
2467	0	42585	15592	94	
2468	0	42582	15593	94	
2469	0	42590	15591	94	
2470	0	42587	15595	94	
2471	0	42591	15592	94	
2472	0	42594	15597	94	
2473	0	42590	15599	94	
2474	0	42601	15596	94	
2475	0	42598	15600	94	
2476	0	42598	15601	94	
2477	0	42608	15602	94	
2478	0	42609	15608	94	
2479	0	42615	15609	94	
2480	0	42617	15613	94	
2481	0	42620	15616	94	
2482	0	42625	15615	94	
2483	0	42625	15612	94	
2484	0	42620	15615	94	
2485	0	42619	15613	94	
2486	0	42608	15610	94	
2487	0	42612	15609	94	
2488	0	42602	15606	94	
2489	0	42609	15606	94	
2490	0	42605	15603	94	
2491	0	42606	15609	94	
2492	0	42612	15605	94	
2493	0	42609	15604	94	
2494	0	42608	15603	94	
2495	0	42610	15606	94	
2496	0	42607	15606	94	
2497	0	42611	15610	94	
2498	0	42617	15609	94	
2499	0	42621	15610	94	
2500	0	42622	15615	94	
2501	0	42624	15614	94	
2502	0	42630	15614	94	
2503	0	42625	15619	94	
2504	0	42625	15616	94	
2505	0	42629	15622	94	
2506	0	42629	15622	94	
2507	0	42640	15627	94	
2508	0	42639	15629	94	
2509	0	42652	15627	94	
2510	0	42653	15630	94	
2511	0	42654	15629	94	
2512	0	42661	15635	94	
2513	0	42656	15635	94	
2514	0	42654	15638	94	
2515	0	42660	15642	94	
2516	0	42663	15638	94	
2517	0	42665	15642	94	
2518	0	42669	15644	94	
2519	0	42674	15642	94	
2520	0	42678	15642	94	
2521	0	42670	15647	94	
2522	0	42674	15641	94	
2523	0	42673	15642	94	
2524	0	42671	15648	94	
2525	0	42672	15644	94	
2526	0	42677	15643	94	
2527	0	42676	15648	94	
2528	0	42678	15649	94	
2529	0	42680	15653	94	
2530	0	42685	15651	94	
2531	0	42689	15654	94	
2532	0	42691	15656	94	
2533	0	42696	15658	94	
2534	0	42691	15662	94	
2535	0	42704	15667	94	
2536	0	42708	15664	94	
2537	0	42711	15667	94	
2538	0	42711	15667	94	
2539	0	42698	15666	94	
2540	0	42689	15655	94	
2541	0	42667	15649	94	
2542	0	42651	15640	94	
2543	0	42633	15627	94	
2544	0	42605	15612	94	
2545	0	42587	15601	94	
2546	0	42565	15588	94	
2547	0	42544	15583	94	
2548	0	42535	15581	94	
2549	0	42527	15575	94	
2550	0	42522	15575	94	
2551	0	42523	15571	94	
2552	0	42525	15577	94	
2553	0	42527	15575	94	
2554	0	42527	15580	94	
2555	0	42537	15581	94	
2556	0	42535	15583	94	
2557	0	42537	15585	94	
2558	0	42542	15585	94	
2559	0	42540	15586	94	
2560	0	42545	15586	94	
2561	0	42548	15592	94	
2562	0	42558	15593	94	
2563	0	42559	15596	94	
2564	0	42564	15600	94	
2565	0	42571	15607	94	
2566	0	42579	15611	94	
2567	0	42590	15608	94	
2568	0	42591	15614	94	
2569	0	42595	15610	94	
2570	0	42595	15615	94	
2571	0	42593	15612	94	
2572	0	42588	15608	94	
2573	0	42589	15614	94	
2574	0	42593	15608	94	
2575	0	42586	15610	94	
2576	0	42594	15612	94	
2577	0	42595	15613	94	
2578	0	42588	15613	94	
2579	0	42599	15615	94	
2580	0	42609	15616	94	
2581	0	42600	15618	94	
2582	0	42602	15620	94	
2583	0	42602	15617	94	
2584	0	42612	15623	94	
2585	0	42613	15626	94	
2586	0	42613	15628	94	
2587	0	42623	15627	94	
2588	0	42626	15633	94	
2589	0	42632	15631	94	
2590	0	42628	15635	94	
2591	0	42635	15637	94	
2592	0	42640	15638	94	
2593	0	42644	15644	94	
2594	0	42645	15646	94	
2595	0	42652	15650	94	
2596	0	42659	15654	94	
2597	0	42659	15653	94	
2598	0	42668	15652	94	
2599	0	42661	15656	94	
2600	0	42661	15661	94	
2601	0	42667	15661	94	
2602	0	42674	15665	94	
2603	0	42687	15672	94	
2604	0	42696	15674	94	
2605	0	42707	15674	94	
2606	0	42698	15678	94	
2607	0	42707	15679	94	
2608	0	42704	15677	94	
2609	0	42711	15681	94	
2610	0	42708	15686	94	
2611	0	42706	15683	94	
2612	0	42712	15686	94	
2613	0	42714	15683	94	
2614	0	42718	15683	94	
2615	0	42712	15683	94	
2616	0	42716	15683	94	
2617	0	42716	15683	94	
2618	0	42717	15685	94	
2619	0	42713	15685	94	
2620	0	42719	15688	94	
2621	0	42730	15694	94	
2622	0	42725	15694	94	
2623	0	42726	15696	94	
2624	0	42712	15691	94	
2625	0	42706	15681	94	
2626	0	42683	15672	94	
2627	0	42659	15656	94	
2628	0	42633	15643	94	
2629	0	42608	15626	94	
2630	0	42579	15614	94	
2631	0	42562	15604	94	
2632	0	42544	15598	94	
2633	0	42538	15594	94	
2634	0	42528	15589	94	
2635	0	42525	15588	94	
2636	0	42517	15586	94	
2637	0	42522	15587	94	
2638	0	42514	15586	94	
2639	0	42514	15587	94	
2640	0	42515	15588	94	
2641	0	42519	15586	94	
2642	0	42520	15585	94	
2643	0	42511	15589	94	
2644	0	42510	15586	94	
2645	0	42510	15584	94	
2646	0	42514	15585	94	
2647	0	42518	15588	94	
2648	0	42518	15589	94	
2649	0	42520	15588	94	
2650	0	42519	15597	94	
2651	0	42524	15596	94	
2652	0	42529	15597	94	
2653	0	42531	15600	94	
2654	0	42536	15597	94	
2655	0	42527	15599	94	
2656	0	42522	15596	94	
2657	0	42521	15598	94	
2658	0	42527	15595	94	
2659	0	42532	15598	94	
2660	0	42525	15598	94	
2661	0	42530	15600	94	
2662	0	42531	15605	94	
2663	0	42527	15602	94	
2664	0	42535	15603	94	
2665	0	42538	15606	94	
2666	0	42546	15609	94	
2667	0	42547	15613	94	
2668	0	42558	15615	94	
2669	0	42562	15615	94	
2670	0	42576	15618	94	
2671	0	42569	15621	94	
2672	0	42577	15617	94	
2673	0	42574	15621	94	
2674	0	42573	15622	94	
2675	0	42585	15626	94	
2676	0	42594	15633	94	
2677	0	42601	15637	94	
2678	0	42607	15643	94	
2679	0	42612	15642	94	
2680	0	42607	15647	94	
2681	0	42615	15648	94	
2682	0	42617	15646	94	
2683	0	42616	15646	94	
2684	0	42619	15648	94	
2685	0	42610	15649	93	
2686	0	42615	15648	93	
2687	0	42617	15650	93	
2688	0	42620	15648	93	
2689	0	42613	15645	93	
2690	0	42616	15647	93	
2691	0	42618	15645	93	
2692	0	42614	15643	93	
2693	0	42618	15646	93	
2694	0	42614	15646	93	
2695	0	42628	15651	93	
2696	0	42627	15654	93	
2697	0	42634	15658	93	
2698	0	42635	15661	93	
2699	0	42647	15667	93	
2700	0	42648	15670	93	
2701	0	42650	15675	93	
2702	0	42658	15676	93	
2703	0	42660	15678	93	
2704	0	42668	15678	93	
2705	0	42663	15676	93	
2706	0	42650	15671	93	
2707	0	42635	15662	93	
2708	0	42614	15655	93	
2709	0	42604	15648	93	
2710	0	42586	15638	93	
2711	0	42577	15632	93	
2712	0	42563	15627	93	
2713	0	42553	15623	93	
2714	0	42546	15619	93	
2715	0	42545	15622	93	
2716	0	42538	15623	93	
2717	0	42536	15625	93	
2718	0	42554	15627	93	
2719	0	42555	15632	93	
2720	0	42563	15635	93	
2721	0	42571	15634	93	
2722	0	42569	15638	93	
2723	0	42574	15637	93	
2724	0	42563	15636	93	
2725	0	42567	15639	93	
2726	0	42570	15640	93	
2727	0	42579	15642	93	
2728	0	42587	15645	93	
2729	0	42592	15645	93	
2730	0	42596	15650	93	
2731	0	42594	15654	93	
2732	0	42602	15652	93	
2733	0	42600	15656	93	
2734	0	42604	15654	93	
2735	0	42608	15653	93	
2736	0	42602	15654	93	
2737	0	42607	15654	93	
2738	0	42599	15653	93	
2739	0	42605	15655	93	
2740	0	42606	15652	93	
2741	0	42603	15654	93	
2742	0	42601	15658	93	
2743	0	42616	15657	93	
2744	0	42613	15662	93	
2745	0	42620	15661	93	
2746	0	42622	15662	93	
2747	0	42619	15662	93	
2748	0	42620	15668	93	
2749	0	42629	15670	93	
2750	0	42631	15672	93	
2751	0	42640	15682	93	
2752	0	42643	15685	93	
2753	0	42654	15691	93	
2754	0	42670	15697	93	
2755	0	42683	15702	93	
2756	0	42699	15709	93	
2757	0	42706	15714	93	
2758	0	42707	15715	93	
2759	0	42714	15720	93	
2760	0	42724	15723	93	
2761	0	42731	15727	93	
2762	0	42734	15731	93	
2763	0	42748	15741	93	
2764	0	42755	15741	93	
2765	0	42763	15747	93	
2766	0	42775	15755	93	
2767	0	42780	15757	93	
2768	0	42784	15762	93	
2769	0	42799	15764	93	
2770	0	42802	15767	93	
2771	0	42807	15767	93	
2772	0	42809	15773	93	
2773	0	42820	15780	93	
2774	0	42828	15779	93	
2775	0	42835	15782	93	
2776	0	42832	15786	93	
2777	0	42835	15785	93	
2778	0	42838	15786	93	
2779	0	42836	15788	93	
2780	0	42842	15790	93	
2781	0	42842	15790	93	
2782	0	42843	15787	93	
2783	0	42827	15780	93	
2784	0	42814	15773	93	
2785	0	42799	15763	93	
2786	0	42786	15752	93	
2787	0	42765	15741	93	
2788	0	42755	15732	93	
2789	0	42732	15725	93	
2790	0	42724	15724	93	
2791	0	42719	15718	93	
2792	0	42713	15722	93	
2793	0	42711	15719	93	
2794	0	42713	15718	93	
2795	0	42708	15721	93	
2796	0	42709	15720	93	
2797	0	42713	15716	93	
2798	0	42713	15719	93	
2799	0	42705	15718	93	
2800	0	42709	15717	93	
2801	0	42704	15716	93	
2802	0	42711	15716	93	
2803	0	42712	15718	93	
2804	0	42711	15720	93	
2805	0	42712	15718	93	
2806	0	42708	15718	93	
2807	0	42714	15722	93	
2808	0	42707	15719	93	
2809	0	42701	15719	93	
2810	0	42697	15714	93	
2811	0	42689	15709	93	
2812	0	42691	15709	93	
2813	0	42685	15700	93	
2814	0	42671	15697	93	
2815	0	42665	15693	93	
2816	0	42647	15691	93	
2817	0	42633	15689	93	
2818	0	42638	15687	93	
2819	0	42633	15684	93	
2820	0	42632	15685	93	
2821	0	42630	15687	93	
2822	0	42629	15685	93	
2823	0	42636	15686	93	
2824	0	42638	15685	93	
2825	0	42638	15691	93	
2826	0	42637	15688	93	
2827	0	42636	15689	93	
2828	0	42638	15697	93	
2829	0	42644	15697	93	
2830	0	42645	15699	93	
2831	0	42653	15700	93	
2832	0	42651	15702	93	
2833	0	42645	15700	93	
2834	0	42641	15702	93	
2835	0	42648	15700	93	
2836	0	42651	15704	93	
2837	0	42651	15706	93	
2838	0	42653	15710	93	
2839	0	42659	15708	93	
2840	0	42663	15708	93	
2841	0	42662	15707	93	
2842	0	42661	15710	93	
2843	0	42660	15716	93	
2844	0	42673	15719	93	
2845	0	42673	15721	93	
2846	0	42682	15722	93	
2847	0	42679	15724	93	
2848	0	42684	15728	93	
2849	0	42697	15731	93	
2850	0	42692	15736	93	
2851	0	42703	15735	93	
2852	0	42706	15739	93	
2853	0	42709	15745	93	
2854	0	42716	15749	93	
2855	0	42723	15750	93	
2856	0	42724	15751	93	
2857	0	42719	15749	93	
2858	0	42711	15745	93	
2859	0	42695	15742	93	
2860	0	42692	15735	93	
2861	0	42673	15726	93	
2862	0	42661	15715	93	
2863	0	42645	15706	93	
2864	0	42625	15703	93	
2865	0	42611	15696	93	
2866	0	42605	15691	93	
2867	0	42599	15688	93	
2868	0	42594	15692	93	
2869	0	42596	15696	93	
2870	0	42595	15692	93	
2871	0	42600	15694	93	
2872	0	42605	15694	93	
2873	0	42610	15695	93	
2874	0	42612	15699	93	
2875	0	42615	15697	93	
2876	0	42615	15703	93	
2877	0	42616	15703	93	
2878	0	42609	15702	93	
2879	0	42612	15706	93	
2880	0	42620	15708	93	
2881	0	42627	15712	93	
2882	0	42633	15715	93	
2883	0	42633	15717	93	
2884	0	42639	15718	93	
2885	0	42644	15719	93	
2886	0	42647	15719	93	
2887	0	42644	15718	93	
2888	0	42643	15720	93	
2889	0	42638	15719	93	
2890	0	42635	15721	93	
2891	0	42641	15719	93	
2892	0	42645	15720	93	
2893	0	42641	15726	93	
2894	0	42642	15720	93	
2895	0	42636	15722	93	
2896	0	42635	15720	93	
2897	0	42635	15721	93	
2898	0	42630	15719	93	
2899	0	42627	15717	93	
2900	0	42620	15719	93	
2901	0	42623	15722	93	
2902	0	42626	15722	93	
2903	0	42623	15723	93	
2904	0	42624	15723	93	
2905	0	42628	15723	93	
2906	0	42627	15731	93	
2907	0	42632	15730	93	
2908	0	42633	15734	93	
2909	0	42639	15736	93	
2910	0	42632	15737	93	
2911	0	42645	15738	93	
2912	0	42641	15741	93	
2913	0	42646	15744	93	
2914	0	42647	15749	93	
2915	0	42654	15754	93	
2916	0	42661	15758	93	
2917	0	42667	15765	93	
2918	0	42681	15769	93	
2919	0	42680	15772	93	
2920	0	42690	15775	93	
2921	0	42685	15777	93	
2922	0	42688	15774	93	
2923	0	42686	15777	93	
2924	0	42681	15779	93	
2925	0	42683	15780	93	
2926	0	42674	15779	93	
2927	0	42676	15781	93	
2928	0	42667	15778	93	
2929	0	42662	15774	93	
2930	0	42646	15765	93	
2931	0	42633	15764	93	
2932	0	42628	15755	93	
2933	0	42607	15752	93	
2934	0	42602	15749	93	
2935	0	42594	15744	93	
2936	0	42588	15748	93	
2937	0	42595	15747	93	
2938	0	42594	15748	93	
2939	0	42596	15751	93	
2940	0	42605	15755	93	
2941	0	42610	15761	93	
2942	0	42613	15764	93	
2943	0	42618	15760	93	
2944	0	42625	15762	93	
2945	0	42627	15768	93	
2946	0	42626	15772	93	
2947	0	42632	15771	93	
2948	0	42634	15774	93	
2949	0	42629	15778	93	
2950	0	42632	15781	93	
2951	0	42632	15784	93	
2952	0	42640	15789	93	
2953	0	42644	15788	93	
2954	0	42641	15791	93	
2955	0	42642	15789	93	
2956	0	42645	15793	93	
2957	0	42646	15794	93	
2958	0	42643	15792	93	
2959	0	42641	15793	93	
2960	0	42644	15792	93	
2961	0	42641	15795	93	
2962	0	42638	15794	93	
2963	0	42632	15789	93	
2964	0	42632	15793	93	
2965	0	42634	15794	93	
2966	0	42641	15796	93	
2967	0	42637	15801	93	
2968	0	42644	15800	93	
2969	0	42645	15806	93	
2970	0	42646	15806	93	
2971	0	42658	15810	93	
2972	0	42653	15812	93	
2973	0	42652	15814	93	
2974	0	42661	15819	93	
2975	0	42663	15822	93	
2976	0	42676	15824	93	
2977	0	42676	15825	93	
2978	0	42677	15828	93	
2979	0	42685	15832	93	
2980	0	42684	15835	93	
2981	0	42688	15836	93	
2982	0	42688	15840	93	
2983	0	42682	15837	93	
2984	0	42690	15842	93	
2985	0	42688	15842	92	
2986	0	42692	15845	92	
2987	0	42699	15846	92	
2988	0	42694	15849	92	
2989	0	42697	15851	92	
2990	0	42700	15853	92	
2991	0	42699	15854	92	
2992	0	42699	15859	92	
2993	0	42701	15859	92	
2994	0	42697	15855	92	
2995	0	42703	15856	92	
2996	0	42698	15860	92	
2997	0	42693	15854	92	
2998	0	42682	15852	92	
2999	0	42672	15846	92	
3000	0	42657	15842	92	
3001	0	42646	15835	92	
3002	0	42631	15826	92	
3003	0	42621	15823	92	
3004	0	42605	15823	92	
3005	0	42601	15815	92	
3006	0	42595	15814	92	
3007	0	42586	15814	92	
3008	0	42583	15812	92	
3009	0	42589	15812	92	
3010	0	42589	15814	92	
3011	0	42592	15813	92	
3012	0	42594	15817	92	
3013	0	42599	15818	92	
3014	0	42600	15818	92	
3015	0	42600	15821	92	
3016	0	42599	15822	92	
3017	0	42592	15823	92	
3018	0	42596	15822	92	
3019	0	42596	15830	92	
3020	0	42601	15827	92	
3021	0	42602	15832	92	
3022	0	42607	15833	92	
3023	0	42610	15838	92	
3024	0	42598	15839	92	
3025	0	42604	15838	92	
3026	0	42605	15845	92	
3027	0	42605	15846	92	
3028	0	42606	15847	92	
3029	0	42612	15853	92	
3030	0	42610	15853	92	
3031	0	42612	15856	92	
3032	0	42616	15859	92	
3033	0	42617	15860	92	
3034	0	42624	15864	92	
3035	0	42624	15863	92	
3036	0	42624	15865	92	
3037	0	42631	15871	92	
3038	0	42628	15872	92	
3039	0	42639	15874	92	
3040	0	42634	15877	92	
3041	0	42630	15881	92	
3042	0	42638	15883	92	
3043	0	42643	15884	92	
3044	0	42647	15887	92	
3045	0	42650	15891	92	
3046	0	42656	15896	92	
3047	0	42655	15893	92	
3048	0	42654	15900	92	
3049	0	42656	15901	92	
3050	0	42661	15902	92	
3051	0	42661	15905	92	
3052	0	42665	15904	92	
3053	0	42665	15909	92	
3054	0	42665	15907	92	
3055	0	42670	15911	92	
3056	0	42665	15915	92	
3057	0	42662	15914	92	
3058	0	42670	15916	92	
3059	0	42670	15916	92	
3060	0	42667	15916	92	
3061	0	42663	15916	92	
3062	0	42665	15918	92	
3063	0	42666	15917	92	
3064	0	42665	15919	92	
3065	0	42663	15915	92	
3066	0	42651	15911	92	
3067	0	42641	15908	92	
3068	0	42629	15903	92	
3069	0	42616	15895	92	
3070	0	42598	15889	92	
3071	0	42592	15882	92	
3072	0	42581	15881	92	
3073	0	42569	15871	92	
3074	0	42569	15873	92	
3075	0	42569	15870	92	
3076	0	42568	15868	92	
3077	0	42564	15870	92	
3078	0	42565	15867	92	
3079	0	42564	15871	92	
3080	0	42565	15873	92	
3081	0	42568	15874	92	
3082	0	42566	15873	92	
3083	0	42569	15876	92	
3084	0	42575	15880	92	
3085	0	42573	15881	92	
3086	0	42573	15885	92	
3087	0	42581	15892	92	
3088	0	42579	15888	92	
3089	0	42583	15892	92	
3090	0	42584	15896	92	
3091	0	42590	15903	92	
3092	0	42593	15903	92	
3093	0	42599	15908	92	
3094	0	42598	15906	92	
3095	0	42593	15909	92	
3096	0	42595	15907	92	
3097	0	42595	15914	92	
3098	0	42599	15916	92	
3099	0	42593	15919	92	
3100	0	42594	15920	92	
3101	0	42589	15925	92	
3102	0	42591	15926	92	
3103	0	42597	15931	92	
3104	0	42600	15932	92	
3105	0	42599	15936	92	
3106	0	42603	15937	92	
3107	0	42601	15943	92	
3108	0	42605	15946	92	
3109	0	42611	15951	92	
3110	0	42614	15954	92	
3111	0	42614	15959	92	
3112	0	42620	15961	92	
3113	0	42632	15963	92	
3114	0	42628	15966	92	
3115	0	42631	15971	92	
3116	0	42640	15973	92	
3117	0	42631	15973	92	
3118	0	42637	15978	92	
3119	0	42634	15978	92	
3120	0	42635	15983	92	
3121	0	42637	15984	92	
3122	0	42640	15987	92	
3123	0	42637	15989	92	
3124	0	42638	15995	92	
3125	0	42648	15991	92	
3126	0	42649	15995	92	
3127	0	42650	15997	92	
3128	0	42651	16000	92	
3129	0	42648	15999	92	
3130	0	42641	16000	92	
3131	0	42642	15998	92	
3132	0	42637	15999	92	
3133	0	42635	15999	92	
3134	0	42630	15994	92	
3135	0	42616	15988	92	
3136	0	42604	15986	92	
3137	0	42591	15980	92	
3138	0	42571	15970	92	
3139	0	42563	15963	92	
3140	0	42550	15961	92	
3141	0	42544	15958	92	
3142	0	42538	15956	92	
3143	0	42538	15953	92	
3144	0	42541	15954	92	
3145	0	42539	15953	92	
3146	0	42542	15953	92	
3147	0	42542	15955	92	
3148	0	42542	15957	92	
3149	0	42543	15957	92	
3150	0	42540	15960	92	
3151	0	42540	15956	92	
3152	0	42550	15960	92	
3153	0	42545	15968	92	
3154	0	42549	15967	92	
3155	0	42546	15964	92	
3156	0	42551	15966	92	
3157	0	42553	15965	92	
3158	0	42557	15971	92	
3159	0	42560	15970	92	
3160	0	42556	15975	92	
3161	0	42558	15977	92	
3162	0	42551	15979	92	
3163	0	42548	15974	92	
3164	0	42548	15976	92	
3165	0	42550	15979	92	
3166	0	42554	15982	92	
3167	0	42551	15977	92	
3168	0	42552	15979	92	
3169	0	42545	15977	92	
3170	0	42550	15978	92	
3171	0	42543	15982	92	
3172	0	42545	15981	92	
3173	0	42547	15982	92	
3174	0	42545	15984	92	
3175	0	42553	15991	92	
3176	0	42555	15991	92	
3177	0	42554	15993	92	
3178	0	42559	15992	92	
3179	0	42552	15988	92	
3180	0	42555	15993	92	
3181	0	42559	15992	92	
3182	0	42556	15993	92	
3183	0	42556	15997	92	
3184	0	42558	16000	92	
3185	0	42561	15999	92	
3186	0	42561	16001	92	
3187	0	42565	16003	92	
3188	0	42560	16004	92	
3189	0	42563	16001	92	
3190	0	42559	16001	92	
3191	0	42557	16006	92	
3192	0	42558	16003	92	
3193	0	42558	16004	92	
3194	0	42553	16003	92	
3195	0	42559	16006	92	
3196	0	42553	16008	92	
3197	0	42551	16008	92	
3198	0	42555	16004	92	
3199	0	42553	16006	92	
3200	0	42546	16005	92	
3201	0	42539	16004	92	
3202	0	42532	16002	92	
3203	0	42526	15999	92	
3204	0	42510	15994	92	
3205	0	42499	15989	92	
3206	0	42488	15984	92	
3207	0	42477	15973	92	
3208	0	42462	15969	92	
3209	0	42463	15967	92	
3210	0	42449	15965	92	
3211	0	42450	15961	92	
3212	0	42453	15963	92	
3213	0	42445	15961	92	
3214	0	42448	15964	92	
3215	0	42453	15967	92	
3216	0	42452	15967	92	
3217	0	42455	15966	92	
3218	0	42454	15964	92	
3219	0	42455	15967	92	
3220	0	42445	15967	92	
3221	0	42446	15968	92	
3222	0	42448	15966	92	
3223	0	42450	15964	92	
3224	0	42446	15966	92	
3225	0	42447	15969	92	
3226	0	42445	15968	92	
3227	0	42446	15965	92	
3228	0	42441	15965	92	
3229	0	42435	15970	92	
3230	0	42434	15968	92	
3231	0	42430	15966	92	
3232	0	42432	15966	92	
3233	0	42431	15966	92	
3234	0	42431	15968	92	
3235	0	42426	15970	92	
3236	0	42429	15969	92	
3237	0	42433	15969	92	
3238	0	42428	15968	92	
3239	0	42429	15971	92	
3240	0	42426	15972	92	
3241	0	42429	15974	92	
3242	0	42431	15974	92	
3243	0	42437	15976	92	
3244	0	42443	15976	92	
3245	0	42442	15979	92	
3246	0	42443	15980	92	
3247	0	42437	15980	92	
3248	0	42442	15981	92	
3249	0	42444	15984	92	
3250	0	42448	15985	92	
3251	0	42453	15989	92	
3252	0	42451	15990	92	
3253	0	42456	15992	92	
3254	0	42457	15991	92	
3255	0	42454	15993	92	
3256	0	42454	15996	92	
3257	0	42453	15998	92	
3258	0	42456	16002	92	
3259	0	42455	16002	92	
3260	0	42462	16005	92	
3261	0	42467	16004	92	
3262	0	42455	16006	92	
3263	0	42467	16006	92	
3264	0	42457	16004	92	
3265	0	42452	16004	92	
3266	0	42453	16001	92	
3267	0	42456	16002	92	
3268	0	42445	16001	92	
3269	0	42447	16002	92	
3270	0	42436	15996	92	
3271	0	42431	15993	92	
3272	0	42422	15991	92	
3273	0	42415	15986	92	
3274	0	42400	15979	92	
3275	0	42390	15976	92	
3276	0	42388	15971	92	
3277	0	42380	15967	92	
3278	0	42367	15964	92	
3279	0	42373	15959	92	
3280	0	42373	15958	92	
3281	0	42376	15961	92	
3282	0	42374	15962	92	
3283	0	42379	15964	92	
3284	0	42384	15964	92	
3285	0	42381	15970	94	
3286	0	42393	15970	94	
3287	0	42401	15973	94	
3288	0	42413	15978	94	
3289	0	42407	15978	94	
3290	0	42415	15982	94	
3291	0	42415	15980	94	
3292	0	42413	15985	94	
3293	0	42412	15985	94	
3294	0	42418	15987	94	
3295	0	42420	15991	94	
3296	0	42429	15995	94	
3297	0	42436	15999	94	
3298	0	42446	16008	94	
3299	0	42450	16010	94	
3300	0	42450	16016	94	
3301	0	42452	16014	94	
3302	0	42455	16016	94	
3303	0	42464	16016	94	
3304	0	42453	16013	94	
3305	0	42453	16015	94	
3306	0	42456	16013	94	
3307	0	42457	16011	94	
3308	0	42458	16016	94	
3309	0	42460	16015	94	
3310	0	42466	16019	94	
3311	0	42469	16022	94	
3312	0	42476	16023	94	
3313	0	42470	16026	94	
3314	0	42474	16030	94	
3315	0	42480	16036	94	
3316	0	42485	16035	94	
3317	0	42493	16039	94	
3318	0	42498	16047	94	
3319	0	42502	16047	94	
3320	0	42511	16051	94	
3321	0	42514	16054	94	
3322	0	42514	16055	94	
3323	0	42513	16059	94	
3324	0	42523	16058	94	
3325	0	42517	16059	94	
3326	0	42523	16063	94	
3327	0	42519	16060	94	
3328	0	42519	16057	94	
3329	0	42514	16056	94	
3330	0	42512	16060	94	
3331	0	42506	16054	94	
3332	0	42509	16056	94	
3333	0	42498	16052	94	
3334	0	42490	16047	94	
3335	0	42485	16047	94	
3336	0	42482	16047	94	
3337	0	42479	16045	94	
3338	0	42474	16043	94	
3339	0	42473	16042	94	
3340	0	42473	16039	94	
3341	0	42466	16040	94	
3342	0	42458	16036	94	
3343	0	42452	16034	94	
3344	0	42454	16029	94	
3345	0	42443	16024	94	
3346	0	42438	16027	94	
3347	0	42433	16022	94	
3348	0	42429	16016	94	
3349	0	42433	16019	94	
3350	0	42440	16018	94	
3351	0	42442	16020	94	
3352	0	42445	16018	94	
3353	0	42447	16026	94	
3354	0	42455	16027	94	
3355	0	42467	16032	94	
3356	0	42472	16032	94	
3357	0	42479	16035	94	
3358	0	42482	16038	94	
3359	0	42477	16034	94	
3360	0	42476	16034	94	
3361	0	42462	16033	94	
3362	0	42463	16030	94	
3363	0	42462	16033	94	
3364	0	42463	16034	94	
3365	0	42461	16033	94	
3366	0	42462	16033	94	
3367	0	42470	16034	94	
3368	0	42466	16037	94	
3369	0	42472	16036	94	
3370	0	42473	16037	94	
3371	0	42471	16030	94	
3372	0	42461	16029	94	
3373	0	42456	16029	94	
3374	0	42454	16027	94	
3375	0	42454	16028	94	
3376	0	42456	16030	94	
3377	0	42455	16030	94	
3378	0	42462	16036	94	
3379	0	42468	16037	94	
3380	0	42467	16041	94	
3381	0	42481	16047	94	
3382	0	42484	16045	94	
3383	0	42492	16053	94	
3384	0	42496	16051	94	
3385	0	42500	16055	94	
3386	0	42498	16054	94	
3387	0	42500	16060	94	
3388	0	42509	16060	94	
3389	0	42514	16058	94	
3390	0	42512	16059	94	
3391	0	42515	16060	94	
3392	0	42507	16063	94	
3393	0	42511	16063	94	
3394	0	42516	16063	94	
3395	0	42507	16065	94	
3396	0	42518	16071	94	
3397	0	42514	16069	94	
3398	0	42516	16068	94	
3399	0	42527	16075	94	
3400	0	42527	16072	94	
3401	0	42531	16068	94	
3402	0	42531	16076	94	
3403	0	42532	16075	94	
3404	0	42526	16075	94	
3405	0	42532	16071	94	
3406	0	42529	16076	94	
3407	0	42534	16073	94	
3408	0	42529	16075	94	
3409	0	42534	16071	94	
3410	0	42525	16073	94	
3411	0	42518	16073	94	
3412	0	42522	16068	94	
3413	0	42506	16064	94	
3414	0	42497	16056	94	
3415	0	42484	16048	94	
3416	0	42464	16041	94	
3417	0	42457	16033	94	
3418	0	42452	16029	94	
3419	0	42447	16025	94	
3420	0	42450	16025	94	
3421	0	42446	16023	94	
3422	0	42451	16023	94	
3423	0	42452	16022	94	
3424	0	42451	16022	94	
3425	0	42453	16023	94	
3426	0	42460	16021	94	
3427	0	42467	16026	94	
3428	0	42470	16027	94	
3429	0	42469	16031	94	
3430	0	42471	16031	94	
3431	0	42472	16037	94	
3432	0	42483	16035	94	
3433	0	42485	16040	94	
3434	0	42486	16044	94	
3435	0	42489	16044	94	
3436	0	42497	16048	94	
3437	0	42497	16054	94	
3438	0	42495	16052	94	
3439	0	42496	16054	94	
3440	0	42498	16051	94	
3441	0	42491	16050	94	
3442	0	42490	16053	94	
3443	0	42489	16051	94	
3444	0	42491	16050	94	
3445	0	42487	16046	94	
3446	0	42491	16048	94	
3447	0	42484	16044	94	
3448	0	42494	16045	94	
3449	0	42491	16044	94	
3450	0	42489	16045	94	
3451	0	42493	16040	94	
3452	0	42494	16041	94	
3453	0	42490	16039	94	
3454	0	42490	16037	94	
3455	0	42492	16042	94	
3456	0	42494	16045	94	
3457	0	42493	16044	94	
3458	0	42505	16051	94	
3459	0	42514	16047	94	
3460	0	42514	16052	94	
3461	0	42515	16057	94	
3462	0	42518	16057	94	
3463	0	42527	16058	94	
3464	0	42524	16061	94	
3465	0	42535	16063	94	
3466	0	42532	16062	94	
3467	0	42532	16060	94	
3468	0	42526	16061	94	
3469	0	42531	16063	94	
3470	0	42526	16063	94	
3471	0	42527	16062	94	
3472	0	42529	16062	94	
3473	0	42522	16060	94	
3474	0	42518	16061	94	
3475	0	42518	16061	94	
3476	0	42519	16060	94	
3477	0	42518	16061	94	
3478	0	42526	16064	94	
3479	0	42531	16065	94	
3480	0	42525	16065	94	
3481	0	42531	16065	94	
3482	0	42522	16062	94	
3483	0	42520	16061	94	
3484	0	42512	16057	94	
3485	0	42499	16054	94	
3486	0	42493	16046	94	
3487	0	42481	16041	94	
3488	0	42469	16032	94	
3489	0	42464	16029	94	
3490	0	42463	16024	94	
3491	0	42460	16021	94	
3492	0	42465	16016	94	
3493	0	42452	16015	94	
3494	0	42454	16013	94	
3495	0	42458	16017	94	
3496	0	42453	16014	94	
3497	0	42464	16014	94	
3498	0	42463	16017	94	
3499	0	42469	16020	94	
3500	0	42466	16016	94	
3501	0	42473	16015	94	
3502	0	42477	16018	94	
3503	0	42476	16019	94	
3504	0	42477	16019	94	
3505	0	42478	16021	94	
3506	0	42486	16025	94	
3507	0	42487	16026	94	
3508	0	42494	16029	94	
3509	0	42495	16032	94	
3510	0	42497	16031	94	
3511	0	42499	16032	94	
3512	0	42500	16033	94	
3513	0	42507	16033	94	
3514	0	42498	16035	94	
3515	0	42505	16035	94	
3516	0	42501	16038	94	
3517	0	42504	16035	94	
3518	0	42508	16041	94	
3519	0	42507	16037	94	
3520	0	42508	16040	94	
3521	0	42515	16038	94	
3522	0	42515	16038	94	
3523	0	42514	16039	94	
3524	0	42521	16043	94	
3525	0	42523	16043	94	
3526	0	42527	16043	94	
3527	0	42528	16047	94	
3528	0	42532	16043	94	
3529	0	42538	16043	94	
3530	0	42537	16047	94	
3531	0	42540	16047	94	
3532	0	42543	16051	94	
3533	0	42540	16049	94	
3534	0	42547	16051	94	
3535	0	42546	16049	94	
3536	0	42547	16052	94	
3537	0	42556	16055	94	
3538	0	42560	16058	94	
3539	0	42562	16058	94	
3540	0	42563	16063	94	
3541	0	42567	16061	94	
3542	0	42566	16059	94	
3543	0	42566	16060	94	
3544	0	42562	16060	94	
3545	0	42566	16061	94	
3546	0	42562	16064	94	
3547	0	42567	16063	94	
3548	0	42559	16067	94	
3549	0	42558	16065	94	
3550	0	42569	16068	94	
3551	0	42568	16065	94	
3552	0	42571	16065	94	
3553	0	42568	16063	94	
3554	0	42564	16061	94	
3555	0	42554	16054	94	
3556	0	42540	16051	94	
3557	0	42526	16037	94	
3558	0	42503	16031	94	
3559	0	42492	16027	94	
3560	0	42480	16018	94	
3561	0	42477	16011	94	
3562	0	42478	16006	94	
3563	0	42474	16006	94	
3564	0	42470	16001	94	
3565	0	42471	16001	94	
3566	0	42465	15997	94	
3567	0	42470	15991	94	
3568	0	42467	15993	94	
3569	0	42469	15994	94	
3570	0	42463	15997	94	
3571	0	42473	15994	94	
3572	0	42471	16000	94	
3573	0	42481	16001	94	
3574	0	42484	16001	94	
3575	0	42489	16007	94	
3576	0	42490	16008	94	
3577	0	42496	16009	94	
3578	0	42506	16013	94	
3579	0	42508	16019	94	
3580	0	42506	16018	94	
3581	0	42510	16018	94	
3582	0	42508	16018	94	
3583	0	42508	16021	94	
3584	0	42511	16022	94	
3585	0	42506	16022	95	
3586	0	42505	16018	95	
3587	0	42507	16023	95	
3588	0	42506	16022	95	
3589	0	42510	16021	95	
3590	0	42507	16018	95	
3591	0	42512	16016	95	
3592	0	42513	16018	95	
3593	0	42513	16017	95	
3594	0	42510	16018	95	
3595	0	42514	16018	95	
3596	0	42513	16018	95	
3597	0	42520	16019	95	
3598	0	42520	16022	95	
3599	0	42520	16019	95	
3600	0	42519	16021	95	
3601	0	42531	16026	95	
3602	0	42532	16028	95	
3603	0	42540	16026	95	
3604	0	42537	16028	95	
3605	0	42536	16027	95	
3606	0	42539	16032	95	
3607	0	42537	16031	95	
3608	0	42539	16033	95	
3609	0	42541	16033	95	
3610	0	42538	16030	95	
3611	0	42538	16030	95	
3612	0	42539	16029	95	
3613	0	42547	16030	95	
3614	0	42541	16032	95	
3615	0	42546	16034	95	
3616	0	42545	16036	95	
3617	0	42550	16034	95	
3618	0	42550	16033	95	
3619	0	42552	16035	95	
3620	0	42551	16036	95	
3621	0	42553	16030	95	
3622	0	42546	16032	95	
3623	0	42539	16030	95	
3624	0	42522	16023	95	
3625	0	42517	16012	95	
3626	0	42496	16005	95	
3627	0	42490	16000	95	
3628	0	42473	15990	95	
3629	0	42466	15980	95	
3630	0	42453	15974	95	
3631	0	42447	15969	95	
3632	0	42437	15967	95	
3633	0	42436	15965	95	
3634	0	42433	15962	95	
3635	0	42441	15960	95	
3636	0	42445	15964	95	
3637	0	42449	15962	95	
3638	0	42445	15962	95	
3639	0	42450	15964	95	
3640	0	42451	15966	95	
3641	0	42456	15966	95	
3642	0	42454	15968	95	
3643	0	42458	15970	95	
3644	0	42455	15967	95	
3645	0	42467	15971	95	
3646	0	42464	15974	95	
3647	0	42472	15973	95	
3648	0	42472	15976	95	
3649	0	42472	15978	95	
3650	0	42474	15976	95	
3651	0	42475	15977	95	
3652	0	42475	15978	95	
3653	0	42474	15977	95	
3654	0	42472	15973	95	
3655	0	42472	15976	95	
3656	0	42478	15971	95	
3657	0	42475	15971	95	
3658	0	42471	15969	95	
3659	0	42477	15972	95	
3660	0	42476	15972	95	
3661	0	42474	15971	95	
3662	0	42484	15971	95	
3663	0	42490	15972	95	
3664	0	42488	15975	95	
3665	0	42494	15976	95	
3666	0	42508	15981	95	
3667	0	42509	15984	95	
3668	0	42512	15983	95	
3669	0	42514	15985	95	
3670	0	42519	15988	95	
3671	0	42526	15991	95	
3672	0	42526	15989	95	
3673	0	42529	15995	95	
3674	0	42530	15999	95	
3675	0	42538	15998	95	
3676	0	42537	15995	95	
3677	0	42544	16001	95	
3678	0	42550	16005	95	
3679	0	42553	16005	95	
3680	0	42545	16008	95	
3681	0	42548	16005	95	
3682	0	42555	16007	95	
3683	0	42559	16005	95	
3684	0	42562	16009	95	
3685	0	42562	16009	95	
3686	0	42561	16009	95	
3687	0	42563	16009	95	
3688	0	42558	16008	95	
3689	0	42553	16007	95	
3690	0	42542	16003	95	
3691	0	42531	15996	95	
3692	0	42523	15988	95	
3693	0	42508	15983	95	
3694	0	42493	15969	95	
3695	0	42483	15963	95	
3696	0	42466	15952	95	
3697	0	42458	15945	95	
3698	0	42456	15942	95	
3699	0	42448	15937	95	
3700	0	42449	15938	95	
3701	0	42455	15933	95	
3702	0	42449	15936	95	
3703	0	42457	15937	95	
3704	0	42451	15934	95	
3705	0	42460	15938	95	
3706	0	42456	15937	95	
3707	0	42459	15940	95	
3708	0	42464	15941	95	
3709	0	42467	15942	95	
3710	0	42473	15947	95	
3711	0	42475	15951	95	
3712	0	42475	15955	95	
3713	0	42484	15954	95	
3714	0	42483	15954	95	
3715	0	42490	15953	95	
3716	0	42494	15956	95	
3717	0	42497	15959	95	
3718	0	42500	15956	95	
3719	0	42495	15954	95	
3720	0	42499	15957	95	
3721	0	42500	15957	95	
3722	0	42493	15957	95	
3723	0	42493	15956	95	
3724	0	42493	15956	95	
3725	0	42501	15951	95	
3726	0	42503	15952	95	
3727	0	42504	15953	95	
3728	0	42500	15955	95	
3729	0	42506	15954	95	
3730	0	42513	15958	95	
3731	0	42516	15958	95	
3732	0	42518	15958	95	
3733	0	42521	15960	95	
3734	0	42529	15963	95	
3735	0	42531	15964	95	
3736	0	42540	15965	95	
3737	0	42539	15970	95	
3738	0	42545	15972	95	
3739	0	42545	15974	95	
3740	0	42555	15975	95	
3741	0	42555	15975	95	
3742	0	42555	15976	95	
3743	0	42559	15981	95	
3744	0	42559	15976	95	
3745	0	42569	15981	95	
3746	0	42564	15981	95	
3747	0	42568	15984	95	
3748	0	42570	15981	95	
3749	0	42567	15986	95	
3750	0	42570	15986	95	
3751	0	42573	15987	95	
3752	0	42579	15989	95	
3753	0	42579	15989	95	
3754	0	42576	15989	95	
3755	0	42583	15992	95	
3756	0	42581	15994	95	
3757	0	42583	15994	95	
3758	0	42572	15989	95	
3759	0	42564	15985	95	
3760	0	42551	15977	95	
3761	0	42537	15970	95	
3762	0	42526	15956	95	
3763	0	42508	15945	95	
3764	0	42491	15938	95	
3765	0	42474	15930	95	
3766	0	42473	15925	95	
3767	0	42466	15920	95	
3768	0	42460	15913	95	
3769	0	42456	15912	95	
3770	0	42458	15909	95	
3771	0	42454	15909	95	
3772	0	42463	15913	95	
3773	0	42463	15911	95	
3774	0	42462	15915	95	
3775	0	42467	15915	95	
3776	0	42467	15912	95	
3777	0	42466	15916	95	
3778	0	42474	15917	95	
3779	0	42471	15917	95	
3780	0	42479	15922	95	
3781	0	42483	15923	95	
3782	0	42489	15924	95	
3783	0	42492	15926	95	
3784	0	42490	15923	95	
3785	0	42502	15924	95	
3786	0	42502	15923	95	
3787	0	42495	15927	95	
3788	0	42501	15930	95	
3789	0	42501	15924	95	
3790	0	42499	15922	95	
3791	0	42498	15922	95	
3792	0	42499	15918	95	
3793	0	42503	15925	95	
3794	0	42504	15919	95	
3795	0	42500	15919	95	
3796	0	42500	15918	95	
3797	0	42504	15918	95	
3798	0	42504	15919	95	
3799	0	42508	15921	95	
3800	0	42520	15927	95	
3801	0	42520	15924	95	
3802	0	42524	15929	95	
3803	0	42531	15930	95	
3804	0	42537	15936	95	
3805	0	42542	15934	95	
3806	0	42549	15939	95	
3807	0	42551	15940	95	
3808	0	42554	15939	95	
3809	0	42559	15946	95	
3810	0	42562	15947	95	
3811	0	42566	15949	95	
3812	0	42566	15948	95	
3813	0	42574	15953	95	
3814	0	42574	15951	95	
3815	0	42577	15952	95	
3816	0	42582	15955	95	
3817	0	42578	15954	95	
3818	0	42586	15955	95	
3819	0	42586	15959	95	
3820	0	42590	15958	95	
3821	0	42588	15961	95	
3822	0	42592	15960	95	
3823	0	42591	15964	95	
3824	0	42603	15960	95	
3825	0	42604	15962	95	
3826	0	42600	15963	95	
3827	0	42604	15965	95	
3828	0	42607	15966	95	
3829	0	42612	15970	95	
3830	0	42616	15968	95	
3831	0	42618	15972	95	
3832	0	42613	15974	95	
3833	0	42617	15967	95	
3834	0	42606	15965	95	
3835	0	42591	15954	95	
3836	0	42573	15948	95	
3837	0	42555	15935	95	
3838	0	42538	15926	95	
3839	0	42521	15914	95	
3840	0	42512	15908	95	
3841	0	42499	15901	95	
3842	0	42491	15893	95	
3843	0	42489	15888	95	
3844	0	42481	15888	95	
3845	0	42481	15885	95	
3846	0	42478	15882	95	
3847	0	42473	15883	95	
3848	0	42483	15880	95	
3849	0	42480	15884	95	
3850	0	42480	15884	95	
3851	0	42487	15885	95	
3852	0	42489	15885	95	
3853	0	42486	15883	95	
3854	0	42490	15884	95	
3855	0	42496	15889	95	
3856	0	42502	15890	95	
3857	0	42509	15892	95	
3858	0	42508	15891	95	
3859	0	42520	15896	95	
3860	0	42516	15895	95	
3861	0	42518	15895	95	
3862	0	42520	15895	95	
3863	0	42521	15895	95	
3864	0	42521	15897	95	
3865	0	42519	15894	95	
3866	0	42522	15891	95	
3867	0	42520	15894	95	
3868	0	42525	15892	95	
3869	0	42532	15893	95	
3870	0	42531	15893	95	
3871	0	42533	15892	95	
3872	0	42533	15893	95	
3873	0	42545	15900	95	
3874	0	42547	15901	95	
3875	0	42553	15900	95	
3876	0	42553	15902	95	
3877	0	42564	15904	95	
3878	0	42565	15905	95	
3879	0	42566	15910	95	
3880	0	42570	15909	95	
3881	0	42580	15915	95	
3882	0	42584	15917	95	
3883	0	42592	15916	95	
3884	0	42595	15920	95	
3885	0	42599	15921	94	
3886	0	42599	15927	94	
3887	0	42607	15925	94	
3888	0	42606	15928	94	
3889	0	42615	15929	94	
3890	0	42616	15930	94	
3891	0	42617	15929	94	
3892	0	42623	15930	94	
3893	0	42622	15932	94	
3894	0	42620	15936	94	
3895	0	42625	15932	94	
3896	0	42628	15934	94	
3897	0	42631	15937	94	
3898	0	42638	15940	94	
3899	0	42644	15943	94	
3900	0	42644	15940	94	
3901	0	42642	15943	94	
3902	0	42644	15941	94	
3903	0	42647	15942	94	
3904	0	42651	15941	94	
3905	0	42650	15946	94	
3906	0	42657	15949	94	
3907	0	42655	15951	94	
3908	0	42662	15952	94	
3909	0	42666	15953	94	
3910	0	42665	15955	94	
3911	0	42662	15952	94	
3912	0	42670	15954	94	
3913	0	42665	15954	94	
3914	0	42654	15948	94	
3915	0	42641	15940	94	
3916	0	42626	15931	94	
3917	0	42603	15917	94	
3918	0	42587	15909	94	
3919	0	42568	15895	94	
3920	0	42547	15887	94	
3921	0	42538	15881	94	
3922	0	42536	15875	94	
3923	0	42526	15871	94	
3924	0	42521	15866	94	
3925	0	42517	15864	94	
3926	0	42518	15858	94	
3927	0	42514	15863	94	
3928	0	42512	15862	94	
3929	0	42524	15865	94	
3930	0	42523	15867	94	
3931	0	42525	15865	94	
3932	0	42523	15867	94	
3933	0	42524	15866	94	
3934	0	42528	15868	94	
3935	0	42534	15870	94	
3936	0	42536	15868	94	
3937	0	42537	15869	94	
3938	0	42543	15872	94	
3939	0	42545	15878	94	
3940	0	42549	15876	94	
3941	0	42555	15879	94	
3942	0	42554	15881	94	
3943	0	42552	15881	94	
3944	0	42559	15882	94	
3945	0	42560	15880	94	
3946	0	42559	15879	94	
3947	0	42564	15875	94	
3948	0	42563	15877	94	
3949	0	42563	15879	94	
3950	0	42558	15878	94	
3951	0	42566	15872	94	
3952	0	42568	15878	94	
3953	0	42571	15882	94	
3954	0	42577	15879	94	
3955	0	42576	15881	94	
3956	0	42579	15884	94	
3957	0	42584	15886	94	
3958	0	42589	15889	94	
3959	0	42593	15890	94	
3960	0	42597	15896	94	
3961	0	42603	15896	94	
3962	0	42608	15896	94	
3963	0	42615	15901	94	
3964	0	42618	15904	94	
3965	0	42617	15903	94	
3966	0	42624	15905	94	
3967	0	42630	15906	94	
3968	0	42632	15906	94	
3969	0	42640	15915	94	
3970	0	42641	15912	94	
3971	0	42645	15915	94	
3972	0	42644	15914	94	
3973	0	42651	15917	94	
3974	0	42652	15921	94	
3975	0	42650	15920	94	
3976	0	42657	15922	94	
3977	0	42660	15923	94	
3978	0	42658	15919	94	
3979	0	42659	15919	94	
3980	0	42664	15922	94	
3981	0	42667	15924	94	
3982	0	42667	15925	94	
3983	0	42664	15924	94	
3984	0	42673	15927	94	
3985	0	42678	15929	94	
3986	0	42679	15930	94	
3987	0	42675	15931	94	
3988	0	42675	15930	94	
3989	0	42680	15936	94	
3990	0	42688	15937	94	
3991	0	42687	15939	94	
3992	0	42693	15936	94	
3993	0	42694	15938	94	
3994	0	42698	15945	94	
3995	0	42696	15944	94	
3996	0	42698	15944	94	
3997	0	42690	15944	94	
3998	0	42685	15939	94	
3999	0	42670	15926	94	
4000	0	42655	15922	94	
4001	0	42629	15908	94	
4002	0	42610	15894	94	
4003	0	42587	15883	94	
4004	0	42570	15876	94	
4005	0	42557	15866	94	
4006	0	42550	15859	94	
4007	0	42541	15858	94	
4008	0	42538	15850	94	
4009	0	42529	15845	94	
4010	0	42533	15843	94	
4011	0	42529	15842	94	
4012	0	42524	15847	94	
4013	0	42529	15847	94	
4014	0	42532	15847	94	
4015	0	42534	15848	94	
4016	0	42530	15846	94	
4017	0	42528	15843	94	
4018	0	42541	15849	94	
4019	0	42538	15847	94	
4020	0	42547	15847	94	
4021	0	42550	15851	94	
4022	0	42551	15849	94	
4023	0	42545	15853	94	
4024	0	42559	15854	94	
4025	0	42558	15859	94	
4026	0	42564	15859	94	
4027	0	42562	15857	94	
4028	0	42562	15856	94	
4029	0	42562	15859	94	
4030	0	42559	15852	94	
4031	0	42556	15858	94	
4032	0	42566	15856	94	
4033	0	42568	15858	94	
4034	0	42568	15857	94	
4035	0	42566	15857	94	
4036	0	42571	15858	94	
4037	0	42576	15860	94	
4038	0	42576	15865	94	
4039	0	42582	15863	94	
4040	0	42587	15864	94	
4041	0	42594	15866	94	
4042	0	42593	15868	94	
4043	0	42603	15874	94	
4044	0	42614	15878	94	
4045	0	42609	15882	94	
4046	0	42612	15885	94	
4047	0	42624	15887	94	
4048	0	42622	15887	94	
4049	0	42630	15888	94	
4050	0	42634	15891	94	
4051	0	42634	15890	94	
4052	0	42640	15896	94	
4053	0	42641	15894	94	
4054	0	42650	15897	94	
4055	0	42654	15900	94	
4056	0	42653	15905	94	
4057	0	42659	15902	94	
4058	0	42665	15904	94	
4059	0	42661	15906	94	
4060	0	42660	15905	94	
4061	0	42668	15907	94	
4062	0	42667	15908	94	
4063	0	42675	15909	94	
4064	0	42671	15913	94	
4065	0	42680	15913	94	
4066	0	42678	15917	94	
4067	0	42682	15917	94	
4068	0	42680	15916	94	
4069	0	42688	15918	94	
4070	0	42684	15914	94	
4071	0	42681	15923	94	
4072	0	42685	15922	94	
4073	0	42690	15921	94	
4074	0	42694	15927	94	
4075	0	42703	15928	94	
4076	0	42708	15928	94	
4077	0	42706	15931	94	
4078	0	42716	15933	94	
4079	0	42718	15935	94	
4080	0	42714	15938	94	
4081	0	42721	15940	94	
4082	0	42723	15944	94	
4083	0	42724	15940	94	
4084	0	42724	15941	94	
4085	0	42714	15932	94	
4086	0	42697	15925	94	
4087	0	42685	15916	94	
4088	0	42665	15905	94	
4089	0	42641	15895	94	
4090	0	42620	15882	94	
4091	0	42599	15873	94	
4092	0	42596	15860	94	
4093	0	42584	15857	94	
4094	0	42571	15850	94	
4095	0	42567	15848	94	
4096	0	42562	15844	94	
4097	0	42569	15842	94	
4098	0	42569	15841	94	
4099	0	42561	15840	94	
4100	0	42569	15843	94	
4101	0	42571	15844	94	
4102	0	42570	15844	94	
4103	0	42579	15848	94	
4104	0	42574	15851	94	
4105	0	42583	15851	94	
4106	0	42583	15853	94	
4107	0	42592	15852	94	
4108	0	42595	15858	94	
4109	0	42595	15857	94	
4110	0	42595	15857	94	
4111	0	42600	15859	94	
4112	0	42602	15863	94	
4113	0	42609	15860	94	
4114	0	42609	15865	94	
4115	0	42614	15864	94	
4116	0	42608	15863	94	
4117	0	42605	15858	94	
4118	0	42615	15860	94	
4119	0	42607	15861	94	
4120	0	42611	15861	94	
4121	0	42615	15861	94	
4122	0	42614	15863	94	
4123	0	42617	15864	94	
4124	0	42625	15865	94	
4125	0	42628	15864	94	
4126	0	42633	15866	94	
4127	0	42636	15871	94	
4128	0	42646	15873	94	
4129	0	42649	15879	94	
4130	0	42654	15880	94	
4131	0	42660	15882	94	
4132	0	42666	15885	94	
4133	0	42666	15889	94	
4134	0	42673	15890	94	
4135	0	42677	15892	94	
4136	0	42686	15896	94	
4137	0	42687	15897	94	
4138	0	42693	15897	94	
4139	0	42696	15903	94	
4140	0	42710	15900	94	
4141	0	42705	15904	94	
4142	0	42714	15906	94	
4143	0	42716	15908	94	
4144	0	42718	15910	94	
4145	0	42724	15911	94	
4146	0	42724	15911	94	
4147	0	42721	15915	94	
4148	0	42731	15913	94	
4149	0	42736	15912	94	
4150	0	42734	15914	94	
4151	0	42738	15915	94	
4152	0	42740	15916	94	
4153	0	42739	15915	94	
4154	0	42738	15921	94	
4155	0	42747	15925	94	
4156	0	42749	15923	94	
4157	0	42748	15921	94	
4158	0	42757	15925	94	
4159	0	42753	15928	94	
4160	0	42760	15928	94	
4161	0	42761	15931	94	
4162	0	42764	15934	94	
4163	0	42764	15934	94	
4164	0	42772	15934	94	
4165	0	42769	15934	94	
4166	0	42772	15936	94	
4167	0	42775	15942	94	
4168	0	42778	15942	94	
4169	0	42789	15944	94	
4170	0	42787	15947	94	
4171	0	42792	15947	94	
4172	0	42790	15949	94	
4173	0	42794	15948	94	
4174	0	42794	15946	94	
4175	0	42790	15945	94	
4176	0	42786	15942	94	
4177	0	42770	15936	94	
4178	0	42757	15923	94	
4179	0	42731	15912	94	
4180	0	42711	15899	94	
4181	0	42691	15884	94	
4182	0	42678	15879	94	
4183	0	42663	15867	94	
4184	0	42653	15865	94	
4185	0	42643	15857	94	
4186	0	42641	15854	94	
4187	0	42636	15850	94	
4188	0	42638	15850	94	
4189	0	42641	15848	94	
4190	0	42642	15850	94	
4191	0	42649	15852	94	
4192	0	42646	15853	94	
4193	0	42658	15856	94	
4194	0	42655	15858	94	
4195	0	42655	15855	94	
4196	0	42664	15858	94	
4197	0	42661	15861	94	
4198	0	42664	15859	94	
4199	0	42676	15862	94	
4200	0	42677	15864	94	
4201	0	42676	15866	94	
4202	0	42681	15866	94	
4203	0	42688	15869	94	
4204	0	42690	15871	94	
4205	0	42690	15871	94	
4206	0	42694	15870	94	
4207	0	42691	15871	94	
4208	0	42692	15867	94	
4209	0	42697	15868	94	
4210	0	42697	15867	94	
4211	0	42696	15868	94	
4212	0	42691	15868	94	
4213	0	42695	15864	94	
4214	0	42705	15870	94	
4215	0	42700	15870	94	
4216	0	42711	15868	94	
4217	0	42713	15872	94	
4218	0	42719	15875	94	
4219	0	42720	15877	94	
4220	0	42725	15876	94	
4221	0	42732	15881	94	
4222	0	42733	15884	94	
4223	0	42746	15888	94	
4224	0	42743	15890	94	
4225	0	42751	15892	94	
4226	0	42761	15894	94	
4227	0	42761	15896	94	
4228	0	42768	15899	94	
4229	0	42770	15902	94	
4230	0	42777	15903	94	
4231	0	42775	15905	94	
4232	0	42779	15907	94	
4233	0	42788	15910	94	
4234	0	42790	15908	94	
4235	0	42794	15911	94	
4236	0	42792	15915	94	
4237	0	42796	15916	94	
4238	0	42797	15914	94	
4239	0	42803	15919	94	
4240	0	42806	15921	94	
4241	0	42811	15917	94	
4242	0	42808	15922	94	
4243	0	42810	15925	94	
4244	0	42815	15923	94	
4245	0	42817	15926	94	
4246	0	42827	15930	94	
4247	0	42826	15928	94	
4248	0	42824	15927	94	
4249	0	42836	15927	94	
4250	0	42830	15934	94	
4251	0	42838	15932	94	
4252	0	42838	15932	94	
4253	0	42837	15934	94	
4254	0	42838	15934	94	
4255	0	42844	15934	94	
4256	0	42845	15936	94	
4257	0	42850	15939	94	
4258	0	42854	15942	94	
4259	0	42854	15943	94	
4260	0	42860	15942	94	
4261	0	42863	15946	94	
4262	0	42865	15949	94	
4263	0	42870	15951	94	
4264	0	42865	15949	94	
4265	0	42872	15950	94	
4266	0	42871	15951	94	
4267	0	42870	15948	94	
4268	0	42853	15944	94	
4269	0	42843	15933	94	
4270	0	42820	15927	94	
4271	0	42803	15917	94	
4272	0	42786	15901	94	
4273	0	42771	15893	94	
4274	0	42761	15880	94	
4275	0	42746	15872	94	
4276	0	42734	15864	94	
4277	0	42721	15860	94	
4278	0	42720	15857	94	
4279	0	42719	15854	94	
4280	0	42719	15850	94	
4281	0	42721	15853	94	
4282	0	42717	15856	94	
4283	0	42723	15857	94	
4284	0	42729	15857	94	
4285	0	42727	15860	94	
4286	0	42730	15861	94	
4287	0	42732	15861	94	
4288	0	42738	15864	94	
4289	0	42735	15863	94	
4290	0	42745	15865	94	
4291	0	42742	15869	94	
4292	0	42757	15873	94	
4293	0	42762	15873	94	
4294	0	42769	15876	94	
4295	0	42771	15877	94	
4296	0	42773	15878	94	
4297	0	42781	15880	94	
4298	0	42780	15876	94	
4299	0	42779	15882	94	
4300	0	42779	15880	94	
4301	0	42780	15880	94	
4302	0	42781	15880	94	
4303	0	42779	15881	94	
4304	0	42781	15880	94	
4305	0	42782	15878	94	
4306	0	42787	15880	94	
4307	0	42785	15883	94	
4308	0	42795	15884	94	
4309	0	42793	15886	94	
4310	0	42805	15890	94	
4311	0	42806	15890	94	
4312	0	42814	15896	94	
4313	0	42818	15896	94	
4314	0	42819	15897	94	
4315	0	42822	15900	94	
4316	0	42832	15904	94	
4317	0	42834	15910	94	
4318	0	42841	15911	94	
4319	0	42843	15911	94	
4320	0	42849	15914	94	
4321	0	42846	15914	94	
4322	0	42856	15916	94	
4323	0	42863	15922	94	
4324	0	42860	15921	94	
4325	0	42867	15923	94	
4326	0	42868	15926	94	
4327	0	42874	15928	94	
4328	0	42872	15928	94	
4329	0	42875	15928	94	
4330	0	42877	15930	94	
4331	0	42882	15931	94	
4332	0	42882	15934	94	
4333	0	42891	15938	94	
4334	0	42892	15934	94	
4335	0	42899	15935	94	
4336	0	42893	15934	94	
4337	0	42895	15934	94	
4338	0	42898	15938	94	
4339	0	42911	15943	94	
4340	0	42907	15945	94	
4341	0	42909	15944	94	
4342	0	42914	15946	94	
4343	0	42912	15949	94	
4344	0	42920	15951	94	
4345	0	42927	15954	94	
4346	0	42926	15952	94	
4347	0	42932	15955	94	
4348	0	42934	15954	94	
4349	0	42935	15959	94	
4350	0	42941	15962	94	
4351	0	42948	15965	94	
4352	0	42950	15967	94	
4353	0	42950	15966	94	
4354	0	42956	15970	94	
4355	0	42958	15974	94	
4356	0	42957	15976	94	
4357	0	42957	15974	94	
4358	0	42955	15971	94	
4359	0	42947	15967	94	
4360	0	42936	15962	94	
4361	0	42914	15952	94	
4362	0	42897	15936	94	
4363	0	42879	15926	94	
4364	0	42860	15919	94	
4365	0	42840	15903	94	
4366	0	42828	15893	94	
4367	0	42817	15891	94	
4368	0	42814	15882	94	
4369	0	42809	15879	94	
4370	0	42800	15877	94	
4371	0	42807	15879	94	
4372	0	42805	15876	94	
4373	0	42810	15882	94	
4374	0	42816	15883	94	
4375	0	42816	15887	94	
4376	0	42817	15887	94	
4377	0	42821	15887	94	
4378	0	42823	15890	94	
4379	0	42824	15891	94	
4380	0	42831	15893	94	
4381	0	42830	15895	94	
4382	0	42839	15896	94	
4383	0	42840	15899	94	
4384	0	42848	15900	94	
4385	0	42855	15902	94	
4386	0	42851	15904	94	
4387	0	42857	15905	94	
4388	0	42860	15905	94	
4389	0	42858	15902	94	
4390	0	42857	15905	94	
4391	0	42859	15905	94	
4392	0	42858	15904	94	
4393	0	42855	15901	94	
4394	0	42856	15903	94	
4395	0	42853	15902	94	
4396	0	42855	15903	94	
4397	0	42862	15903	94	
4398	0	42862	15908	94	
4399	0	42872	15906	94	
4400	0	42876	15909	94	
4401	0	42878	15909	94	
4402	0	42872	15912	94	
4403	0	42885	15918	94	
4404	0	42893	15918	94	
4405	0	42896	15924	94	
4406	0	42900	15928	94	
4407	0	42911	15931	94	
4408	0	42912	15934	94	
4409	0	42914	15934	94	
4410	0	42922	15940	94	
4411	0	42920	15942	94	
4412	0	42927	15942	94	
4413	0	42933	15942	94	
4414	0	42938	15948	94	
4415	0	42938	15948	94	
4416	0	42936	15945	94	
4417	0	42940	15952	94	
4418	0	42943	15952	94	
4419	0	42946	15955	94	
4420	0	42958	15953	94	
4421	0	42956	15955	94	
4422	0	42952	15954	94	
4423	0	42957	15959	94	
4424	0	42963	15958	94	
4425	0	42955	15956	94	
4426	0	42960	15960	94	
4427	0	42966	15962	94	
4428	0	42976	15962	94	
4429	0	42968	15960	94	
4430	0	42975	15965	94	
4431	0	42978	15964	94	
4432	0	42985	15969	94	
4433	0	42981	15967	94	
4434	0	42987	15970	94	
4435	0	42990	15967	94	
4436	0	42983	15970	94	
4437	0	42986	15970	94	
4438	0	42989	15975	94	
4439	0	42991	15975	94	
4440	0	42994	15978	94	
4441	0	42999	15978	94	
4442	0	43002	15982	94	
4443	0	43008	15981	94	
4444	0	43004	15983	94	
4445	0	43007	15984	94	
4446	0	43012	15984	94	
4447	0	43012	15988	94	
4448	0	43011	15985	94	
4449	0	43006	15984	94	
4450	0	42997	15979	94	
4451	0	42974	15971	94	
4452	0	42960	15961	94	
4453	0	42939	15946	94	
4454	0	42923	15936	94	
4455	0	42901	15928	94	
4456	0	42888	15917	94	
4457	0	42874	15911	94	
4458	0	42868	15902	94	
4459	0	42860	15896	94	
4460	0	42854	15892	94	
4461	0	42853	15891	94	
4462	0	42857	15890	94	
4463	0	42857	15889	94	
4464	0	42857	15890	94	
4465	0	42865	15892	94	
4466	0	42861	15896	94	
4467	0	42872	15899	94	
4468	0	42869	15900	94	
4469	0	42873	15906	94	
4470	0	42879	15903	94	
4471	0	42877	15907	94	
4472	0	42880	15908	94	
4473	0	42889	15914	94	
4474	0	42888	15916	94	
4475	0	42894	15918	94	
4476	0	42894	15914	94	
4477	0	42898	15915	94	
4478	0	42900	15917	94	
4479	0	42901	15917	94	
4480	0	42902	15916	94	
4481	0	42900	15915	94	
4482	0	42897	15911	94	
4483	0	42891	15912	94	
4484	0	42899	15912	94	
4485	0	42899	15911	94	
4486	0	42897	15909	94	
4487	0	42896	15913	94	
4488	0	42897	15914	94	
4489	0	42899	15913	94	
4490	0	42906	15914	94	
4491	0	42906	15914	94	
4492	0	42915	15920	94	
4493	0	42920	15917	94	
4494	0	42926	15923	94	
4495	0	42928	15928	94	
4496	0	42934	15932	94	
4497	0	42934	15932	94	
4498	0	42936	15933	94	
4499	0	42946	15934	94	
4500	0	42947	15939	94	
4501	0	42949	15947	94	
4502	0	42959	15947	94	
4503	0	42964	15947	94	
4504	0	42966	15949	94	
4505	0	42968	15953	94	
4506	0	42972	15956	94	
4507	0	42979	15955	94	
4508	0	42985	15959	94	
4509	0	42979	15956	94	
4510	0	42980	15956	94	
4511	0	42985	15962	94	
4512	0	42986	15959	94	
4513	0	42989	15962	94	
4514	0	42994	15964	94	
4515	0	42992	15966	94	
4516	0	42998	15967	94	
4517	0	43000	15968	94	
4518	0	43004	15970	94	
4519	0	42998	15970	94	
4520	0	43006	15975	94	
4521	0	43007	15975	94	
4522	0	43010	15972	94	
4523	0	43011	15973	94	
4524	0	43010	15976	94	
4525	0	43017	15976	94	
4526	0	43017	15978	94	
4527	0	43022	15982	94	
4528	0	43027	15981	94	
4529	0	43026	15982	94	
4530	0	43028	15984	94	
4531	0	43029	15987	94	
4532	0	43030	15989	94	
4533	0	43036	15989	94	
4534	0	43040	15994	94	
4535	0	43039	15992	94	
4536	0	43038	15993	94	
4537	0	43045	15993	94	
4538	0	43048	15994	94	
4539	0	43044	15996	94	
4540	0	43034	15988	94	
4541	0	43019	15982	94	
4542	0	43006	15973	94	
4543	0	42985	15964	94	
4544	0	42969	15950	94	
4545	0	42945	15937	94	
4546	0	42925	15926	94	
4547	0	42915	15916	94	
4548	0	42900	15909	94	
4549	0	42898	15905	94	
4550	0	42888	15901	94	
4551	0	42888	15898	94	
4552	0	42889	15895	94	
4553	0	42887	15895	94	
4554	0	42887	15899	94	
4555	0	42893	15899	94	
4556	0	42891	15900	94	
4557	0	42900	15906	94	
4558	0	42902	15907	94	
4559	0	42907	15908	94	
4560	0	42909	15909	94	
4561	0	42914	15910	94	
4562	0	42911	15912	94	
4563	0	42917	15913	94	
4564	0	42924	15916	94	
4565	0	42920	15920	94	
4566	0	42925	15913	94	
4567	0	42933	15922	94	
4568	0	42930	15918	94	
4569	0	42937	15924	94	
4570	0	42935	15919	94	
4571	0	42935	15922	94	
4572	0	42936	15923	94	
4573	0	42931	15921	94	
4574	0	42932	15921	94	
4575	0	42934	15914	94	
4576	0	42924	15915	94	
4577	0	42921	15918	94	
4578	0	42926	15916	94	
4579	0	42936	15915	94	
4580	0	42931	15919	94	
4581	0	42935	15922	94	
4582	0	42944	15921	94	
4583	0	42949	15922	94	
4584	0	42951	15921	94	
4585	0	42950	15927	94	
4586	0	42955	15929	94	
4587	0	42962	15929	94	
4588	0	42970	15935	94	
4589	0	42971	15936	94	
4590	0	42975	15942	94	
4591	0	42974	15940	94	
4592	0	42984	15942	94	
4593	0	42984	15944	94	
4594	0	42993	15947	94	
4595	0	42989	15949	94	
4596	0	42997	15951	94	
4597	0	43001	15951	94	
4598	0	43003	15954	94	
4599	0	43004	15952	94	
4600	0	43005	15953	94	
4601	0	43004	15955	94	
4602	0	43010	15957	94	
4603	0	43009	15957	94	
4604	0	43008	15959	94	
4605	0	43017	15956	94	
4606	0	43017	15961	94	
4607	0	43018	15962	94	
4608	0	43013	15958	94	
4609	0	43020	15963	94	
4610	0	43018	15963	94	
4611	0	43023	15960	94	
4612	0	43027	15968	94	
4613	0	43028	15967	94	
4614	0	43025	15969	94	
4615	0	43036	15967	94	
4616	0	43036	15967	94	
4617	0	43036	15971	94	
4618	0	43039	15972	94	
4619	0	43039	15973	94	
4620	0	43039	15976	94	
4621	0	43043	15975	94	
4622	0	43049	15976	94	
4623	0	43049	15976	94	
4624	0	43047	15978	94	
4625	0	43061	15979	94	
4626	0	43058	15981	94	
4627	0	43056	15984	94	
4628	0	43057	15981	94	
4629	0	43048	15979	94	
4630	0	43038	15972	94	
4631	0	43027	15967	94	
4632	0	43014	15953	94	
4633	0	42988	15940	94	
4634	0	42970	15932	94	
4635	0	42949	15920	94	
4636	0	42936	15910	94	
4637	0	42922	15901	94	
4638	0	42914	15894	94	
4639	0	42914	15889	94	
4640	0	42908	15886	94	
4641	0	42911	15889	94	
4642	0	42904	15888	94	
4643	0	42907	15885	94	
4644	0	42911	15891	94	
4645	0	42911	15892	94	
4646	0	42915	15892	94	
4647	0	42922	15894	94	
4648	0	42922	15900	94	
4649	0	42928	15896	94	
4650	0	42929	15899	94	
4651	0	42931	15901	94	
4652	0	42935	15900	94	
4653	0	42945	15903	94	
4654	0	42945	15908	94	
4655	0	42953	15907	94	
4656	0	42950	15907	94	
4657	0	42953	15910	94	
4658	0	42955	15908	94	
4659	0	42955	15910	94	
4660	0	42953	15907	94	
4661	0	42945	15905	94	
4662	0	42947	15906	94	
4663	0	42948	15899	94	
4664	0	42946	15900	94	
4665	0	42945	15897	94	
4666	0	42946	15901	94	
4667	0	42945	15899	94	
4668	0	42943	15902	94	
4669	0	42947	15900	94	
4670	0	42945	15904	94	
4671	0	42944	15905	94	
4672	0	42946	15906	94	
4673	0	42952	15902	94	
4674	0	42950	15906	94	
4675	0	42962	15907	94	
4676	0	42961	15908	94	
4677	0	42965	15908	94	
4678	0	42970	15913	94	
4679	0	42967	15912	94	
4680	0	42968	15910	94	
4681	0	42973	15913	94	
4682	0	42971	15912	94	
4683	0	42979	15915	94	
4684	0	42977	15915	94	
4685	0	42975	15915	94	
4686	0	42983	15918	94	
4687	0	42979	15917	94	
4688	0	42985	15916	94	
4689	0	42987	15919	94	
4690	0	42990	15918	94	
4691	0	42992	15921	94	
4692	0	42997	15923	94	
4693	0	42994	15927	94	
4694	0	43004	15926	94	
4695	0	43011	15925	94	
4696	0	43013	15930	94	
4697	0	43011	15929	94	
4698	0	43015	15933	94	
4699	0	43017	15935	94	
4700	0	43013	15936	94	
4701	0	43015	15936	94	
4702	0	43021	15938	94	
4703	0	43023	15939	94	
4704	0	43024	15940	94	
4705	0	43027	15939	94	
4706	0	43035	15947	94	
4707	0	43035	15948	94	
4708	0	43045	15951	94	
4709	0	43048	15955	94	
4710	0	43052	15956	94	
4711	0	43055	15959	94	
4712	0	43060	15962	94	
4713	0	43069	15965	94	
4714	0	43072	15969	94	
4715	0	43073	15964	94	
4716	0	43073	15962	94	
4717	0	43059	15960	94	
4718	0	43047	15953	94	
4719	0	43032	15946	94	
4720	0	43010	15933	94	
4721	0	42988	15921	94	
4722	0	42970	15909	94	
4723	0	42955	15897	94	
4724	0	42943	15889	94	
4725	0	42932	15875	94	
4726	0	42918	15870	94	
4727	0	42917	15867	94	
4728	0	42911	15859	94	
4729	0	42902	15863	94	
4730	0	42906	15860	94	
4731	0	42906	15864	94	
4732	0	42907	15859	94	
4733	0	42910	15864	94	
4734	0	42916	15867	94	
4735	0	42923	15870	94	
4736	0	42924	15870	94	
4737	0	42927	15871	94	
4738	0	42928	15871	94	
4739	0	42934	15872	94	
4740	0	42932	15877	94	
4741	0	42945	15877	94	
4742	0	42940	15880	94	
4743	0	42942	15884	94	
4744	0	42957	15884	94	
4745	0	42949	15885	94	
4746	0	42954	15885	94	
4747	0	42954	15886	94	
4748	0	42962	15882	94	
4749	0	42954	15883	94	
4750	0	42949	15882	94	
4751	0	42959	15881	94	
4752	0	42949	15880	94	
4753	0	42951	15881	94	
4754	0	42963	15881	94	
4755	0	42959	15883	94	
4756	0	42962	15883	94	
4757	0	42968	15884	94	
4758	0	42971	15886	94	
4759	0	42967	15889	94	
4760	0	42980	15894	94	
4761	0	42984	15895	94	
4762	0	42990	15900	94	
4763	0	42996	15902	94	
4764	0	42991	15908	94	
4765	0	42997	15906	94	
4766	0	43005	15905	94	
4767	0	43012	15913	94	
4768	0	43010	15914	94	
4769	0	43014	15917	94	
4770	0	43014	15916	94	
4771	0	43017	15918	94	
4772	0	43019	15921	94	
4773	0	43028	15923	94	
4774	0	43026	15925	94	
4775	0	43032	15922	94	
4776	0	43027	15922	94	
4777	0	43036	15928	94	
4778	0	43040	15928	94	
4779	0	43037	15926	94	
4780	0	43038	15925	94	
4781	0	43040	15928	94	
4782	0	43042	15929	94	
4783	0	43045	15929	94	
4784	0	43046	15933	94	
4785	0	43042	15931	95	
4786	0	43042	15930	95	
4787	0	43039	15931	95	
4788	0	43047	15931	95	
4789	0	43047	15932	95	
4790	0	43047	15934	95	
4791	0	43056	15933	95	
4792	0	43054	15937	95	
4793	0	43055	15939	95	
4794	0	43064	15939	95	
4795	0	43063	15941	95	
4796	0	43062	15943	95	
4797	0	43070	15944	95	
4798	0	43068	15946	95	
4799	0	43079	15948	95	
4800	0	43074	15956	95	
4801	0	43077	15954	95	
4802	0	43078	15949	95	
4803	0	43067	15946	95	
4804	0	43051	15942	95	
4805	0	43042	15932	95	
4806	0	43013	15917	95	
4807	0	43003	15907	95	
4808	0	42984	15895	95	
4809	0	42965	15886	95	
4810	0	42950	15873	95	
4811	0	42943	15865	95	
4812	0	42931	15861	95	
4813	0	42924	15855	95	
4814	0	42923	15852	95	
4815	0	42919	15851	95	
4816	0	42922	15853	95	
4817	0	42919	15857	95	
4818	0	42923	15859	95	
4819	0	42925	15861	95	
4820	0	42937	15863	95	
4821	0	42932	15862	95	
4822	0	42933	15863	95	
4823	0	42938	15864	95	
4824	0	42946	15866	95	
4825	0	42941	15868	95	
4826	0	42946	15871	95	
4827	0	42953	15873	95	
4828	0	42958	15875	95	
4829	0	42958	15875	95	
4830	0	42961	15875	95	
4831	0	42965	15873	95	
4832	0	42957	15873	95	
4833	0	42959	15878	95	
4834	0	42958	15874	95	
4835	0	42956	15872	95	
4836	0	42959	15869	95	
4837	0	42955	15870	95	
4838	0	42956	15870	95	
4839	0	42958	15871	95	
4840	0	42953	15867	95	
4841	0	42959	15870	95	
4842	0	42959	15869	95	
4843	0	42964	15870	95	
4844	0	42965	15873	95	
4845	0	42970	15877	95	
4846	0	42970	15877	95	
4847	0	42981	15880	95	
4848	0	42980	15882	95	
4849	0	42980	15882	95	
4850	0	42990	15884	95	
4851	0	42995	15887	95	
4852	0	42997	15888	95	
4853	0	43000	15890	95	
4854	0	43006	15891	95	
4855	0	43007	15894	95	
4856	0	43007	15897	95	
4857	0	43008	15898	95	
4858	0	43010	15898	95	
4859	0	43015	15898	95	
4860	0	43020	15899	95	
4861	0	43019	15895	95	
4862	0	43019	15901	95	
4863	0	43020	15896	95	
4864	0	43017	15900	95	
4865	0	43018	15901	95	
4866	0	43025	15900	95	
4867	0	43028	15903	95	
4868	0	43028	15903	95	
4869	0	43029	15907	95	
4870	0	43028	15903	95	
4871	0	43028	15907	95	
4872	0	43034	15904	95	
4873	0	43032	15907	95	
4874	0	43034	15910	95	
4875	0	43032	15908	95	
4876	0	43040	15914	95	
4877	0	43042	15913	95	
4878	0	43044	15916	95	
4879	0	43050	15915	95	
4880	0	43045	15921	95	
4881	0	43058	15922	95	
4882	0	43053	15923	95	
4883	0	43056	15924	95	
4884	0	43061	15924	95	
4885	0	43064	15923	95	
4886	0	43056	15921	95	
4887	0	43041	15914	95	
4888	0	43024	15906	95	
4889	0	43011	15895	95	
4890	0	42998	15884	95	
4891	0	42982	15869	95	
4892	0	42954	15864	95	
4893	0	42944	15852	95	
4894	0	42926	15844	95	
4895	0	42921	15834	95	
4896	0	42908	15826	95	
4897	0	42904	15826	95	
4898	0	42901	15826	95	
4899	0	42906	15828	95	
4900	0	42905	15827	95	
4901	0	42909	15832	95	
4902	0	42907	15830	95	
4903	0	42908	15833	95	
4904	0	42919	15833	95	
4905	0	42919	15834	95	
4906	0	42920	15835	95	
4907	0	42926	15837	95	
4908	0	42925	15838	95	
4909	0	42931	15839	95	
4910	0	42937	15840	95	
4911	0	42935	15845	95	
4912	0	42941	15843	95	
4913	0	42941	15846	95	
4914	0	42941	15851	95	
4915	0	42949	15849	95	
4916	0	42940	15847	95	
4917	0	42942	15844	95	
4918	0	42944	15847	95	
4919	0	42944	15847	95	
4920	0	42945	15847	95	
4921	0	42947	15849	95	
4922	0	42943	15845	95	
4923	0	42947	15846	95	
4924	0	42948	15848	95	
4925	0	42946	15844	95	
4926	0	42948	15845	95	
4927	0	42948	15849	95	
4928	0	42956	15850	95	
4929	0	42957	15851	95	
4930	0	42956	15852	95	
4931	0	42958	15854	95	
4932	0	42964	15855	95	
4933	0	42973	15857	95	
4934	0	42973	15861	95	
4935	0	42976	15864	95	
4936	0	42985	15865	95	
4937	0	42981	15870	95	
4938	0	42994	15873	95	
4939	0	42994	15878	95	
4940	0	43000	15875	95	
4941	0	43006	15877	95	
4942	0	43008	15881	95	
4943	0	43008	15880	95	
4944	0	43011	15884	95	
4945	0	43017	15887	95	
4946	0	43019	15886	95	
4947	0	43018	15891	95	
4948	0	43026	15893	95	
4949	0	43021	15895	95	
4950	0	43019	15895	95	
4951	0	43026	15891	95	
4952	0	43029	15895	95	
4953	0	43026	15900	95	
4954	0	43029	15896	95	
4955	0	43031	15899	95	
4956	0	43036	15902	95	
4957	0	43037	15903	95	
4958	0	43036	15907	95	
4959	0	43034	15905	95	
4960	0	43041	15909	95	
4961	0	43041	15907	95	
4962	0	43049	15905	95	
4963	0	43047	15909	95	
4964	0	43054	15911	95	
4965	0	43052	15913	95	
4966	0	43060	15910	95	
4967	0	43057	15916	95	
4968	0	43060	15916	95	
4969	0	43063	15916	95	
4970	0	43059	15915	95	
4971	0	43050	15910	95	
4972	0	43029	15903	95	
4973	0	43014	15889	95	
4974	0	42991	15878	95	
4975	0	42971	15864	95	
4976	0	42951	15851	95	
4977	0	42940	15843	95	
4978	0	42922	15836	95	
4979	0	42916	15829	95	
4980	0	42904	15823	95	
4981	0	42894	15820	95	
4982	0	42892	15818	95	
4983	0	42892	15813	95	
4984	0	42892	15820	95	
4985	0	42895	15819	95	
4986	0	42895	15820	95	
4987	0	42900	15820	95	
4988	0	42895	15820	95	
4989	0	42899	15822	95	
4990	0	42899	15824	95	
4991	0	42905	15825	95	
4992	0	42908	15828	95	
4993	0	42909	15830	95	
4994	0	42916	15831	95	
4995	0	42916	15837	95	
4996	0	42922	15840	95	
4997	0	42919	15840	95	
4998	0	42921	15839	95	
4999	0	42927	15836	95	
5000	0	42929	15838	95	
5001	0	42923	15837	95	
5002	0	42922	15837	95	
5003	0	42922	15832	95	
5004	0	42926	15836	95	
5005	0	42919	15832	95	
5006	0	42913	15832	95	
5007	0	42917	15830	95	
5008	0	42916	15833	95	
5009	0	42925	15834	95	
5010	0	42927	15834	95	
5011	0	42922	15840	95	
5012	0	42930	15836	95	
5013	0	42928	15841	95	
5014	0	42938	15844	95	
5015	0	42936	15847	95	
5016	0	42946	15848	95	
5017	0	42947	15852	95	
5018	0	42950	15852	95	
5019	0	42956	15858	95	
5020	0	42964	15860	95	
5021	0	42967	15862	95	
5022	0	42972	15869	95	
5023	0	42976	15870	95	
5024	0	42980	15870	95	
5025	0	42978	15869	95	
5026	0	42989	15869	95	
5027	0	42991	15873	95	
5028	0	42987	15877	95	
5029	0	42988	15878	95	
5030	0	42987	15883	95	
5031	0	42987	15881	95	
5032	0	42997	15882	95	
5033	0	42992	15885	95	
5034	0	42987	15882	95	
5035	0	42994	15881	95	
5036	0	42998	15880	95	
5037	0	42997	15884	95	
5038	0	42998	15884	95	
5039	0	42999	15886	95	
5040	0	42994	15886	95	
5041	0	43000	15882	95	
5042	0	43003	15886	95	
5043	0	43007	15886	95	
5044	0	43002	15887	95	
5045	0	43004	15888	95	
5046	0	43009	15891	95	
5047	0	43010	15891	95	
5048	0	43013	15891	95	
5049	0	43011	15894	95	
5050	0	43018	15898	95	
5051	0	43018	15898	95	
5052	0	43021	15899	95	
5053	0	43015	15897	95	
5054	0	43006	15891	95	
5055	0	42993	15887	95	
5056	0	42972	15871	95	
5057	0	42952	15863	95	
5058	0	42936	15850	95	
5059	0	42911	15837	95	
5060	0	42896	15828	95	
5061	0	42879	15822	95	
5062	0	42867	15808	95	
5063	0	42858	15804	95	
5064	0	42851	15802	95	
5065	0	42843	15798	95	
5066	0	42839	15798	95	
5067	0	42844	15803	95	
5068	0	42846	15801	95	
5069	0	42849	15799	95	
5070	0	42854	15803	95	
5071	0	42853	15801	95	
5072	0	42854	15804	95	
5073	0	42854	15801	95	
5074	0	42857	15801	95	
5075	0	42855	15802	95	
5076	0	42863	15810	95	
5077	0	42866	15808	95	
5078	0	42876	15811	95	
5079	0	42878	15817	95	
5080	0	42876	15818	95	
5081	0	42872	15817	95	
5082	0	42878	15818	95	
5083	0	42882	15818	95	
5084	0	42875	15815	95	
5085	0	42878	15813	95	
5086	0	42870	15812	95	
5087	0	42867	15812	95	
5088	0	42872	15811	95	
5089	0	42866	15807	95	
5090	0	42868	15807	95	
5091	0	42870	15808	95	
5092	0	42864	15810	95	
5093	0	42873	15809	95	
5094	0	42871	15808	95	
5095	0	42881	15813	95	
5096	0	42882	15817	95	
5097	0	42882	15816	95	
5098	0	42892	15822	95	
5099	0	42891	15827	95	
5100	0	42902	15826	95	
5101	0	42901	15828	95	
5102	0	42911	15832	95	
5103	0	42909	15834	95	
5104	0	42916	15838	95	
5105	0	42915	15840	95	
5106	0	42924	15844	95	
5107	0	42927	15846	95	
5108	0	42922	15849	95	
5109	0	42933	15845	95	
5110	0	42939	15848	95	
5111	0	42935	15852	95	
5112	0	42937	15853	95	
5113	0	42934	15850	95	
5114	0	42938	15854	95	
5115	0	42934	15851	95	
5116	0	42938	15853	95	
5117	0	42937	15855	95	
5118	0	42941	15855	95	
5119	0	42932	15855	95	
5120	0	42931	15857	95	
5121	0	42935	15856	95	
5122	0	42942	15858	95	
5123	0	42945	15861	95	
5124	0	42949	15862	95	
5125	0	42945	15864	95	
5126	0	42944	15866	95	
5127	0	42952	15868	95	
5128	0	42957	15869	95	
5129	0	42953	15868	95	
5130	0	42953	15868	95	
5131	0	42961	15869	95	
5132	0	42949	15867	95	
5133	0	42946	15866	95	
5134	0	42928	15855	95	
5135	0	42905	15844	95	
5136	0	42884	15833	95	
5137	0	42863	15819	95	
5138	0	42844	15805	95	
5139	0	42823	15796	95	
5140	0	42808	15785	95	
5141	0	42793	15779	95	
5142	0	42782	15770	95	
5143	0	42771	15770	95	
5144	0	42763	15765	95	
5145	0	42767	15767	95	
5146	0	42768	15765	95	
5147	0	42763	15763	95	
5148	0	42766	15766	95	
5149	0	42762	15765	95	
5150	0	42763	15764	95	
5151	0	42764	15771	95	
5152	0	42776	15772	95	
5153	0	42770	15767	95	
5154	0	42776	15768	95	
5155	0	42775	15772	95	
5156	0	42779	15776	95	
5157	0	42784	15779	95	
5158	0	42789	15781	95	
5159	0	42793	15785	95	
5160	0	42792	15785	95	
5161	0	42794	15786	95	
5162	0	42794	15787	95	
5163	0	42795	15782	95	
5164	0	42797	15780	95	
5165	0	42795	15780	95	
5166	0	42787	15782	95	
5167	0	42795	15782	95	
5168	0	42793	15779	95	
5169	0	42790	15781	95	
5170	0	42795	15783	95	
5171	0	42792	15787	95	
5172	0	42794	15784	95	
5173	0	42802	15791	95	
5174	0	42799	15794	95	
5175	0	42810	15797	95	
5176	0	42814	15800	95	
5177	0	42821	15803	95	
5178	0	42824	15807	95	
5179	0	42830	15807	95	
5180	0	42829	15810	95	
5181	0	42835	15813	95	
5182	0	42845	15813	95	
5183	0	42843	15819	95	
5184	0	42851	15822	95	
5185	0	42855	15826	95	
5186	0	42860	15827	95	
5187	0	42861	15829	95	
5188	0	42860	15832	95	
5189	0	42868	15835	95	
5190	0	42865	15836	95	
5191	0	42872	15836	95	
5192	0	42873	15840	95	
5193	0	42866	15837	95	
5194	0	42865	15841	95	
5195	0	42871	15839	95	
5196	0	42869	15840	95	
5197	0	42876	15842	95	
5198	0	42879	15841	95	
5199	0	42878	15843	95	
5200	0	42880	15846	95	
5201	0	42874	15847	95	
5202	0	42877	15845	95	
5203	0	42878	15851	95	
5204	0	42885	15848	95	
5205	0	42889	15848	95	
5206	0	42881	15850	95	
5207	0	42883	15853	95	
5208	0	42887	15852	95	
5209	0	42894	15854	95	
5210	0	42885	15852	95	
5211	0	42880	15849	95	
5212	0	42860	15843	95	
5213	0	42852	15833	95	
5214	0	42829	15819	95	
5215	0	42813	15811	95	
5216	0	42789	15795	95	
5217	0	42771	15782	95	
5218	0	42748	15773	95	
5219	0	42739	15765	95	
5220	0	42726	15761	95	
5221	0	42720	15753	95	
5222	0	42716	15753	95	
5223	0	42710	15752	95	
5224	0	42709	15750	95	
5225	0	42708	15753	95	
5226	0	42707	15750	95	
5227	0	42706	15753	95	
5228	0	42712	15757	95	
5229	0	42706	15754	95	
5230	0	42709	15757	95	
5231	0	42713	15757	95	
5232	0	42722	15759	95	
