# OpenSignals Text File Format. Version 1
# {"84:2E:14:0C:D8:EF": {"position": 0, "device": "biosignalsplux", "device name": "84:2E:14:0C:D8:EF", "device connection": "BTH84:2E:14:0C:D8:EF", "sampling rate": 100, "resolution": [16, 16], "firmware version": 779, "comments": "", "keywords": "", "mode": 0, "sync interval": 2, "date": "2026-4-1", "time": "16:26:59.60", "channels": [9, 10, 11], "sensor": ["fSpO2", "fSpO2", "%SpO2"], "label": ["CH9A", "CH9B", "%SpO2"], "column": ["nSeq", "DI", "CH9A", "CH9B", "%SpO2"], "special": [{"SpO2": [80, 40, 5, 4, 5, 5]}, {"SpO2": [80, 40, 5, 4, 5, 5]}, {"SpO2": [80, 40, 5, 4, 5, 5]}, {"SpO2": [80, 40, 5, 4, 5, 5]}, {"SpO2": [80, 40, 5, 4, 5, 5]}, {"SpO2": [80, 40, 5, 4, 5, 5]}, {"SpO2": [80, 40, 5, 4, 5, 5]}, {"SpO2": [80, 40, 5, 4, 5, 5]}, {"SpO2": [80, 40, 5, 4, 5, 5]}, {"SpO2": [80, 40, 5, 4, 5, 5]}], "digital IO": [0, 1], "virtual channels": "{'channels': [11], 'calculationChannels': [[9, 10]]}", "sleeve color": ["yellow", "yellow", "dark_blue"]}}
# EndOfHeader
0	0	60621	30052	0	
1	0	60609	30041	0	
2	0	60611	30045	0	
3	0	60605	30042	0	
4	0	60607	30041	0	
5	0	60597	30042	0	
6	0	60595	30041	0	
7	0	60600	30040	0	
8	0	60602	30039	0	
9	0	60600	30036	0	
10	0	60599	30029	0	
11	0	60596	30035	0	
12	0	60596	30033	0	
13	0	60598	30032	0	
14	0	60589	30032	0	
15	0	60589	30030	0	
16	0	60596	30031	0	
17	0	60592	30028	0	
18	0	60587	30030	0	
19	0	60585	30031	0	
20	0	60585	30032	0	
21	0	60581	30037	0	
22	0	60584	30031	0	
23	0	60593	30030	0	
24	0	60591	30035	0	
25	0	60590	30030	0	
26	0	60589	30031	0	
27	0	60586	30029	0	
28	0	60587	30032	0	
29	0	60594	30028	0	
30	0	60586	30032	0	
31	0	60585	30029	0	
32	0	60591	30034	0	
33	0	60595	30033	0	
34	0	60596	30029	0	
35	0	60585	30033	0	
36	0	60588	30035	0	
37	0	60590	30036	0	
38	0	60585	30036	0	
39	0	60585	30033	0	
40	0	60591	30029	0	
41	0	60585	30030	0	
42	0	60578	30023	0	
43	0	60579	30024	0	
44	0	60568	30020	0	
45	0	60563	30011	0	
46	0	60554	30006	0	
47	0	60555	30008	0	
48	0	60548	30005	0	
49	0	60549	30001	0	
50	0	60554	30000	0	
51	0	60552	29996	0	
52	0	60552	29999	0	
53	0	60551	29998	0	
54	0	60552	29992	0	
55	0	60552	29993	0	
56	0	60559	29993	0	
57	0	60550	29992	0	
58	0	60545	29992	0	
59	0	60551	29989	0	
60	0	60552	29987	0	
61	0	60548	29991	0	
62	0	60544	29989	0	
63	0	60542	29985	0	
64	0	60544	29987	0	
65	0	60550	29990	0	
66	0	60548	29984	0	
67	0	60545	29987	0	
68	0	60547	29985	0	
69	0	60555	29983	0	
70	0	60547	29980	0	
71	0	60544	29983	0	
72	0	60559	29984	0	
73	0	60556	29985	0	
74	0	60548	29985	0	
75	0	60557	29988	0	
76	0	60551	29983	0	
77	0	60555	29983	0	
78	0	60555	29981	0	
79	0	60551	29980	0	
80	0	60555	29984	0	
81	0	60551	29982	0	
82	0	60550	29989	0	
83	0	60554	29984	0	
84	0	60552	29983	0	
85	0	60552	29986	0	
86	0	60561	29987	0	
87	0	60565	29987	0	
88	0	60564	29986	0	
89	0	60552	29991	0	
90	0	60559	29991	0	
91	0	60558	29989	0	
92	0	60558	29990	0	
93	0	60565	29996	0	
94	0	60554	29988	0	
95	0	60562	29988	0	
96	0	60559	29992	0	
97	0	60566	29994	0	
98	0	60567	29993	0	
99	0	60567	29994	0	
100	0	60560	29991	0	
101	0	60568	29997	0	
102	0	60561	29996	0	
103	0	60570	29997	0	
104	0	60568	30002	0	
105	0	60571	29999	0	
106	0	60567	29997	0	
107	0	60574	29999	0	
108	0	60573	29995	0	
109	0	60564	29998	0	
110	0	60558	29995	0	
111	0	60570	30000	0	
112	0	60572	29995	0	
113	0	60568	29998	0	
114	0	60566	30004	0	
115	0	60568	29998	0	
116	0	60568	30003	0	
117	0	60569	30005	0	
118	0	60575	30002	0	
119	0	60568	30003	0	
120	0	60577	30004	0	
121	0	60575	30003	0	
122	0	60574	30006	0	
123	0	60577	30008	0	
124	0	60578	30008	0	
125	0	60580	30007	0	
126	0	60575	30007	0	
127	0	60574	30003	0	
128	0	60578	30011	0	
129	0	60579	30007	0	
130	0	60575	30014	0	
131	0	60582	30010	0	
132	0	60580	30016	0	
133	0	60576	30008	0	
134	0	60575	30016	0	
135	0	60578	30016	0	
136	0	60588	30017	0	
137	0	60580	30016	0	
138	0	60577	30015	0	
139	0	60583	30011	0	
140	0	60585	30015	0	
141	0	60581	30015	0	
142	0	60583	30010	0	
143	0	60578	30014	0	
144	0	60568	30008	0	
145	0	60566	30008	0	
146	0	60561	29997	0	
147	0	60557	29996	0	
148	0	60553	29994	0	
149	0	60558	29991	0	
150	0	60559	29991	0	
151	0	60555	29986	0	
152	0	60545	29981	0	
153	0	60546	29983	0	
154	0	60543	29979	0	
155	0	60552	29981	0	
156	0	60554	29978	0	
157	0	60545	29981	0	
158	0	60547	29977	0	
159	0	60543	29977	0	
160	0	60550	29974	0	
161	0	60547	29974	0	
162	0	60543	29975	0	
163	0	60547	29972	0	
164	0	60555	29973	0	
165	0	60545	29970	0	
166	0	60545	29971	0	
167	0	60557	29976	0	
168	0	60550	29974	0	
169	0	60551	29977	0	
170	0	60555	29975	0	
171	0	60553	29976	0	
172	0	60554	29976	0	
173	0	60547	29983	0	
174	0	60554	29980	0	
175	0	60556	29984	0	
176	0	60547	29983	0	
177	0	60548	29977	0	
178	0	60552	29980	0	
179	0	60554	29979	0	
180	0	60550	29976	0	
181	0	60550	29979	0	
182	0	60549	29977	0	
183	0	60552	29978	0	
184	0	60550	29980	0	
185	0	60553	29982	0	
186	0	60556	29980	0	
187	0	60555	29979	0	
188	0	60553	29983	0	
189	0	60553	29981	0	
190	0	60565	29981	0	
191	0	60557	29984	0	
192	0	60559	29980	0	
193	0	60562	29986	0	
194	0	60554	29983	0	
195	0	60554	29987	0	
196	0	60555	29987	0	
197	0	60560	29985	0	
198	0	60560	29990	0	
199	0	60560	29990	0	
200	0	60560	29985	0	
201	0	60567	29995	0	
202	0	60566	29990	0	
203	0	60567	29984	0	
204	0	60569	29987	0	
205	0	60565	29990	0	
206	0	60566	29991	0	
207	0	60568	29988	0	
208	0	60574	29989	0	
209	0	60569	29988	0	
210	0	60572	29987	0	
211	0	60569	29993	0	
212	0	60565	29991	0	
213	0	60575	29990	0	
214	0	60578	29990	0	
215	0	60570	29995	0	
216	0	60577	29994	0	
217	0	60576	30003	0	
218	0	60571	29994	0	
219	0	60582	29995	0	
220	0	60572	29990	0	
221	0	60576	29997	0	
222	0	60574	29998	0	
223	0	60575	30002	0	
224	0	60569	29997	0	
225	0	60583	30003	0	
226	0	60572	29995	0	
227	0	60576	29999	0	
228	0	60575	30002	0	
229	0	60586	30003	0	
230	0	60573	30003	0	
231	0	60581	30010	0	
232	0	60587	30004	0	
233	0	60576	30007	0	
234	0	60588	30007	0	
235	0	60577	30006	0	
236	0	60584	30006	0	
237	0	60588	30006	0	
238	0	60590	30012	0	
239	0	60589	30010	0	
240	0	60583	30008	0	
241	0	60582	30008	0	
242	0	60582	30009	0	
243	0	60573	30003	0	
244	0	60578	30001	0	
245	0	60572	30006	0	
246	0	60574	29997	0	
247	0	60570	29994	0	
248	0	60566	29988	0	
249	0	60560	29987	0	
250	0	60559	29984	0	
251	0	60548	29981	0	
252	0	60552	29980	0	
253	0	60553	29983	0	
254	0	60556	29975	0	
255	0	60556	29981	0	
256	0	60555	29980	0	
257	0	60554	29975	0	
258	0	60549	29977	0	
259	0	60544	29981	0	
260	0	60546	29979	0	
261	0	60550	29976	0	
262	0	60554	29973	0	
263	0	60549	29973	0	
264	0	60549	29974	0	
265	0	60545	29972	0	
266	0	60550	29979	0	
267	0	60550	29980	0	
268	0	60553	29977	0	
269	0	60554	29979	0	
270	0	60564	29971	0	
271	0	60555	29973	0	
272	0	60556	29976	0	
273	0	60563	29978	0	
274	0	60559	29971	0	
275	0	60553	29973	0	
276	0	60555	29975	0	
277	0	60559	29971	0	
278	0	60558	29975	0	
279	0	60552	29972	0	
280	0	60563	29976	0	
281	0	60560	29975	0	
282	0	60558	29982	0	
283	0	60556	29976	0	
284	0	60563	29977	0	
285	0	60563	29974	98	
286	0	60560	29981	98	
287	0	60564	29981	98	
288	0	60557	29981	98	
289	0	60564	29983	98	
290	0	60573	29984	98	
291	0	60566	29984	98	
292	0	60562	29978	98	
293	0	60565	29984	98	
294	0	60571	29985	98	
295	0	60566	29981	98	
296	0	60561	29987	98	
297	0	60567	29984	98	
298	0	60559	29984	98	
299	0	60573	29983	98	
300	0	60567	29983	98	
301	0	60558	29984	98	
302	0	60573	29983	98	
303	0	60562	29985	98	
304	0	60564	29983	98	
305	0	60573	29985	98	
306	0	60575	29982	98	
307	0	60576	29984	98	
308	0	60571	29990	98	
309	0	60575	29986	98	
310	0	60567	29983	98	
311	0	60568	29985	98	
312	0	60566	29988	98	
313	0	60570	29989	98	
314	0	60573	29990	98	
315	0	60565	29987	98	
316	0	60567	29988	98	
317	0	60577	29993	98	
318	0	60571	29997	98	
319	0	60576	29988	98	
320	0	60575	29994	98	
321	0	60569	29997	98	
322	0	60578	29994	98	
323	0	60573	29997	98	
324	0	60577	30000	98	
325	0	60576	30000	98	
326	0	60575	30002	98	
327	0	60581	29997	98	
328	0	60582	29997	98	
329	0	60582	29996	98	
330	0	60579	29999	98	
331	0	60577	30000	98	
332	0	60584	30004	98	
333	0	60582	30000	98	
334	0	60577	30000	98	
335	0	60578	30001	98	
336	0	60584	30001	98	
337	0	60572	30005	98	
338	0	60583	30009	98	
339	0	60585	30007	98	
340	0	60578	30010	98	
341	0	60582	30003	98	
342	0	60577	30006	98	
343	0	60568	29998	98	
344	0	60565	30000	98	
345	0	60560	29985	98	
346	0	60550	29986	98	
347	0	60561	29981	98	
348	0	60554	29984	98	
349	0	60551	29980	98	
350	0	60547	29980	98	
351	0	60549	29977	98	
352	0	60554	29980	98	
353	0	60555	29971	98	
354	0	60557	29977	98	
355	0	60551	29972	98	
356	0	60553	29978	98	
357	0	60555	29973	98	
358	0	60551	29973	98	
359	0	60545	29971	98	
360	0	60557	29974	98	
361	0	60551	29973	98	
362	0	60549	29972	98	
363	0	60548	29968	98	
364	0	60548	29975	98	
365	0	60551	29972	98	
366	0	60555	29982	98	
367	0	60554	29977	98	
368	0	60560	29977	98	
369	0	60560	29972	98	
370	0	60560	29976	98	
371	0	60563	29972	98	
372	0	60557	29974	98	
373	0	60553	29974	98	
374	0	60556	29979	98	
375	0	60562	29973	98	
376	0	60555	29973	98	
377	0	60564	29974	98	
378	0	60556	29973	98	
379	0	60557	29975	98	
380	0	60556	29977	98	
381	0	60558	29975	98	
382	0	60561	29976	98	
383	0	60555	29970	98	
384	0	60558	29980	98	
385	0	60557	29976	98	
386	0	60562	29984	98	
387	0	60560	29977	98	
388	0	60558	29979	98	
389	0	60569	29977	98	
390	0	60569	29978	98	
391	0	60569	29977	98	
392	0	60566	29984	98	
393	0	60566	29972	98	
394	0	60565	29987	98	
395	0	60571	29979	98	
396	0	60564	29988	98	
397	0	60563	29983	98	
398	0	60568	29986	98	
399	0	60569	29982	98	
400	0	60574	29983	98	
401	0	60576	29988	98	
402	0	60575	29984	98	
403	0	60570	29989	98	
404	0	60572	29987	98	
405	0	60572	29988	98	
406	0	60569	29985	98	
407	0	60575	29991	98	
408	0	60582	29988	98	
409	0	60580	29990	98	
410	0	60584	29992	98	
411	0	60585	29993	98	
412	0	60573	29992	98	
413	0	60586	29995	98	
414	0	60583	29995	98	
415	0	60582	29994	98	
416	0	60586	29996	98	
417	0	60583	29999	98	
418	0	60578	29999	98	
419	0	60579	30002	98	
420	0	60575	29997	98	
421	0	60586	30005	98	
422	0	60580	29998	98	
423	0	60583	30000	98	
424	0	60571	30005	98	
425	0	60582	30002	98	
426	0	60590	30003	98	
427	0	60581	30001	98	
428	0	60589	30001	98	
429	0	60579	30003	98	
430	0	60589	30003	98	
431	0	60585	30005	98	
432	0	60587	30004	98	
433	0	60592	30007	98	
434	0	60589	30004	98	
435	0	60595	30005	98	
436	0	60587	30007	98	
437	0	60587	30013	98	
438	0	60586	30011	98	
439	0	60589	30006	98	
440	0	60587	30006	98	
441	0	60594	30013	98	
442	0	60594	30009	98	
443	0	60580	30003	98	
444	0	60575	30002	98	
445	0	60573	29996	98	
446	0	60564	29986	98	
447	0	60568	29985	98	
448	0	60555	29984	98	
449	0	60566	29982	98	
450	0	60561	29983	98	
451	0	60552	29979	98	
452	0	60557	29982	98	
453	0	60558	29977	98	
454	0	60559	29976	98	
455	0	60555	29972	98	
456	0	60557	29978	98	
457	0	60561	29973	98	
458	0	60555	29975	98	
459	0	60551	29970	98	
460	0	60563	29975	98	
461	0	60559	29970	98	
462	0	60559	29973	98	
463	0	60556	29971	98	
464	0	60555	29965	98	
465	0	60553	29965	98	
466	0	60553	29969	98	
467	0	60558	29968	98	
468	0	60553	29970	98	
469	0	60557	29965	98	
470	0	60562	29965	98	
471	0	60562	29962	98	
472	0	60557	29966	98	
473	0	60560	29965	98	
474	0	60562	29970	98	
475	0	60553	29970	98	
476	0	60562	29964	98	
477	0	60564	29968	98	
478	0	60558	29969	98	
479	0	60553	29968	98	
480	0	60558	29971	98	
481	0	60555	29969	98	
482	0	60560	29967	98	
483	0	60554	29969	98	
484	0	60564	29967	98	
485	0	60562	29965	98	
486	0	60565	29972	98	
487	0	60566	29969	98	
488	0	60563	29968	98	
489	0	60568	29971	98	
490	0	60564	29970	98	
491	0	60572	29965	98	
492	0	60561	29970	98	
493	0	60563	29970	98	
494	0	60572	29971	98	
495	0	60563	29964	98	
496	0	60561	29975	98	
497	0	60565	29970	98	
498	0	60574	29983	98	
499	0	60567	29975	98	
500	0	60572	29980	98	
501	0	60574	29978	98	
502	0	60574	29981	98	
503	0	60575	29975	98	
504	0	60570	29980	98	
505	0	60577	29982	98	
506	0	60569	29976	98	
507	0	60582	29983	98	
508	0	60569	29982	98	
509	0	60571	29980	98	
510	0	60577	29983	98	
511	0	60583	29984	98	
512	0	60578	29981	98	
513	0	60570	29985	98	
514	0	60577	29986	98	
515	0	60583	29985	98	
516	0	60574	29986	98	
517	0	60584	29986	98	
518	0	60577	29986	98	
519	0	60580	29976	98	
520	0	60583	29989	98	
521	0	60573	29985	98	
522	0	60586	29989	98	
523	0	60584	29985	98	
524	0	60585	29986	98	
525	0	60585	29986	98	
526	0	60591	29987	98	
527	0	60592	29989	98	
528	0	60584	29983	98	
529	0	60588	29989	98	
530	0	60587	29990	98	
531	0	60584	29997	98	
532	0	60585	29993	98	
533	0	60592	29996	98	
534	0	60587	29998	98	
535	0	60583	29995	98	
536	0	60582	29997	98	
537	0	60588	30003	98	
538	0	60592	30002	98	
539	0	60592	30001	98	
540	0	60593	30004	98	
541	0	60588	30001	98	
542	0	60591	30004	98	
543	0	60583	29993	98	
544	0	60578	29996	98	
545	0	60582	29995	98	
546	0	60568	29991	98	
547	0	60567	29986	98	
548	0	60568	29982	98	
549	0	60567	29986	98	
550	0	60559	29976	98	
551	0	60555	29976	98	
552	0	60559	29970	98	
553	0	60566	29972	98	
554	0	60560	29977	98	
555	0	60557	29972	98	
556	0	60556	29975	98	
557	0	60562	29971	98	
558	0	60556	29972	98	
559	0	60556	29970	98	
560	0	60558	29972	98	
561	0	60561	29971	98	
562	0	60557	29970	98	
563	0	60564	29969	98	
564	0	60554	29968	98	
565	0	60556	29968	98	
566	0	60561	29967	98	
567	0	60561	29968	98	
568	0	60555	29967	98	
569	0	60555	29968	98	
570	0	60559	29969	98	
571	0	60570	29971	98	
572	0	60565	29973	98	
573	0	60568	29973	98	
574	0	60564	29968	98	
575	0	60563	29970	98	
576	0	60561	29972	98	
577	0	60564	29971	98	
578	0	60562	29966	98	
579	0	60565	29970	98	
580	0	60555	29971	98	
581	0	60571	29966	98	
582	0	60563	29969	98	
583	0	60561	29969	98	
584	0	60563	29968	98	
585	0	60560	29974	98	
586	0	60565	29967	98	
587	0	60567	29972	98	
588	0	60561	29975	98	
589	0	60560	29974	98	
590	0	60565	29973	98	
591	0	60569	29978	98	
592	0	60570	29974	98	
593	0	60569	29974	98	
594	0	60568	29978	98	
595	0	60569	29972	98	
596	0	60568	29981	98	
597	0	60575	29979	98	
598	0	60571	29981	98	
599	0	60570	29976	98	
600	0	60571	29982	98	
601	0	60570	29981	98	
602	0	60583	29976	98	
603	0	60576	29980	98	
604	0	60580	29977	98	
605	0	60575	29981	98	
606	0	60574	29978	98	
607	0	60574	29980	98	
608	0	60577	29984	98	
609	0	60578	29983	98	
610	0	60575	29983	98	
611	0	60576	29980	98	
612	0	60587	29982	98	
613	0	60579	29984	98	
614	0	60586	29987	98	
615	0	60581	29986	98	
616	0	60582	29985	98	
617	0	60590	29991	98	
618	0	60581	29982	98	
619	0	60588	29983	98	
620	0	60586	29984	98	
621	0	60579	29985	98	
622	0	60583	29991	98	
623	0	60578	29990	98	
624	0	60587	29988	98	
625	0	60593	29988	98	
626	0	60596	29990	98	
627	0	60586	29984	98	
628	0	60579	29989	98	
629	0	60591	29994	98	
630	0	60589	29995	98	
631	0	60594	30003	98	
632	0	60586	29995	98	
633	0	60589	29997	98	
634	0	60593	29998	98	
635	0	60593	29997	98	
636	0	60595	29997	98	
637	0	60587	29993	98	
638	0	60592	29999	98	
639	0	60587	30002	98	
640	0	60601	30005	98	
641	0	60594	30001	98	
642	0	60587	29998	98	
643	0	60593	29998	98	
644	0	60580	29991	98	
645	0	60583	29993	98	
646	0	60571	29984	98	
647	0	60572	29979	98	
648	0	60563	29978	98	
649	0	60559	29980	98	
650	0	60564	29973	98	
651	0	60568	29971	98	
652	0	60564	29975	98	
653	0	60558	29969	98	
654	0	60561	29972	98	
655	0	60564	29968	98	
656	0	60567	29969	98	
657	0	60558	29966	98	
658	0	60561	29969	98	
659	0	60566	29972	98	
660	0	60566	29973	98	
661	0	60556	29967	98	
662	0	60560	29968	98	
663	0	60565	29964	98	
664	0	60554	29966	98	
665	0	60565	29967	98	
666	0	60569	29968	98	
667	0	60566	29967	98	
668	0	60569	29965	98	
669	0	60565	29969	98	
670	0	60569	29969	98	
671	0	60569	29975	98	
672	0	60569	29970	98	
673	0	60569	29966	98	
674	0	60565	29970	98	
675	0	60566	29963	98	
676	0	60567	29967	98	
677	0	60571	29963	98	
678	0	60563	29965	98	
679	0	60566	29969	98	
680	0	60577	29972	98	
681	0	60572	29967	98	
682	0	60575	29969	98	
683	0	60569	29968	98	
684	0	60567	29971	98	
685	0	60566	29978	98	
686	0	60569	29979	98	
687	0	60569	29976	98	
688	0	60579	29973	98	
689	0	60576	29978	98	
690	0	60579	29976	98	
691	0	60569	29973	98	
692	0	60574	29973	98	
693	0	60578	29976	98	
694	0	60583	29970	98	
695	0	60576	29974	98	
696	0	60573	29973	98	
697	0	60573	29974	98	
698	0	60572	29974	98	
699	0	60573	29978	98	
700	0	60572	29975	98	
701	0	60581	29979	98	
702	0	60579	29980	98	
703	0	60580	29981	98	
704	0	60588	29983	98	
705	0	60585	29984	98	
706	0	60579	29979	98	
707	0	60578	29984	98	
708	0	60587	29981	98	
709	0	60588	29982	98	
710	0	60587	29988	98	
711	0	60585	29991	98	
712	0	60584	29985	98	
713	0	60582	29988	98	
714	0	60586	29987	98	
715	0	60586	29989	98	
716	0	60583	29989	98	
717	0	60590	29991	98	
718	0	60583	29986	98	
719	0	60595	29992	98	
720	0	60597	29991	98	
721	0	60598	29996	98	
722	0	60594	29991	98	
723	0	60589	29991	98	
724	0	60596	29998	98	
725	0	60600	29992	98	
726	0	60598	29998	98	
727	0	60596	29997	98	
728	0	60600	29999	98	
729	0	60595	29997	98	
730	0	60592	30001	98	
731	0	60595	29999	98	
732	0	60598	29998	98	
733	0	60594	30000	98	
734	0	60595	29999	98	
735	0	60593	29999	98	
736	0	60602	30000	98	
737	0	60607	29998	98	
738	0	60599	30003	98	
739	0	60603	30005	98	
740	0	60599	30004	98	
741	0	60598	30004	98	
742	0	60607	30004	98	
743	0	60600	30003	98	
744	0	60598	29997	98	
745	0	60591	29993	98	
746	0	60587	29989	98	
747	0	60577	29984	98	
748	0	60576	29984	98	
749	0	60571	29981	98	
750	0	60573	29977	98	
751	0	60569	29977	98	
752	0	60566	29978	98	
753	0	60572	29973	98	
754	0	60558	29973	98	
755	0	60565	29974	98	
756	0	60562	29971	98	
757	0	60573	29966	98	
758	0	60562	29969	98	
759	0	60568	29971	98	
760	0	60569	29973	98	
761	0	60561	29967	98	
762	0	60564	29963	98	
763	0	60561	29967	98	
764	0	60558	29960	98	
765	0	60560	29960	98	
766	0	60564	29963	98	
767	0	60565	29960	98	
768	0	60560	29965	98	
769	0	60567	29967	98	
770	0	60569	29964	98	
771	0	60563	29967	98	
772	0	60561	29967	98	
773	0	60562	29963	98	
774	0	60562	29961	98	
775	0	60564	29962	98	
776	0	60568	29963	98	
777	0	60567	29960	98	
778	0	60557	29968	98	
779	0	60571	29966	98	
780	0	60562	29964	98	
781	0	60570	29968	98	
782	0	60568	29966	98	
783	0	60572	29966	98	
784	0	60563	29970	98	
785	0	60574	29966	98	
786	0	60574	29970	98	
787	0	60566	29964	98	
788	0	60568	29966	98	
789	0	60571	29964	98	
790	0	60576	29974	98	
791	0	60577	29968	98	
792	0	60564	29973	98	
793	0	60580	29971	98	
794	0	60572	29976	98	
795	0	60571	29974	98	
796	0	60570	29973	98	
797	0	60578	29970	98	
798	0	60574	29975	98	
799	0	60578	29974	98	
800	0	60574	29975	98	
801	0	60573	29968	98	
802	0	60577	29973	98	
803	0	60578	29979	98	
804	0	60571	29977	98	
805	0	60585	29976	98	
806	0	60579	29976	98	
807	0	60584	29981	98	
808	0	60579	29982	98	
809	0	60580	29978	98	
810	0	60579	29983	98	
811	0	60583	29984	98	
812	0	60586	29984	98	
813	0	60582	29981	98	
814	0	60576	29986	98	
815	0	60583	29980	98	
816	0	60577	29980	98	
817	0	60576	29980	98	
818	0	60579	29987	98	
819	0	60583	29980	98	
820	0	60583	29986	98	
821	0	60591	29986	98	
822	0	60589	29982	98	
823	0	60589	29988	98	
824	0	60592	29992	98	
825	0	60584	29978	98	
826	0	60584	29989	98	
827	0	60588	29990	98	
828	0	60583	29990	98	
829	0	60598	29991	98	
830	0	60590	29988	98	
831	0	60590	29992	98	
832	0	60591	29995	98	
833	0	60598	29996	98	
834	0	60594	29996	98	
835	0	60597	29996	98	
836	0	60590	29996	98	
837	0	60597	29997	98	
838	0	60598	30001	98	
839	0	60601	29999	98	
840	0	60599	30003	98	
841	0	60600	29998	98	
842	0	60596	29999	98	
843	0	60595	29996	98	
844	0	60605	30002	98	
845	0	60589	29995	98	
846	0	60595	29992	98	
847	0	60586	29987	98	
848	0	60583	29987	98	
849	0	60574	29978	98	
850	0	60576	29973	98	
851	0	60567	29974	98	
852	0	60564	29974	98	
853	0	60569	29971	98	
854	0	60566	29978	98	
855	0	60572	29977	98	
856	0	60567	29975	98	
857	0	60570	29970	98	
858	0	60566	29971	98	
859	0	60570	29970	98	
860	0	60570	29970	98	
861	0	60573	29969	98	
862	0	60568	29972	98	
863	0	60560	29968	98	
864	0	60564	29966	98	
865	0	60559	29961	98	
866	0	60570	29967	98	
867	0	60568	29964	98	
868	0	60557	29965	98	
869	0	60570	29964	98	
870	0	60572	29968	98	
871	0	60567	29964	98	
872	0	60570	29967	98	
873	0	60572	29967	98	
874	0	60562	29967	98	
875	0	60571	29967	98	
876	0	60574	29970	98	
877	0	60566	29970	98	
878	0	60575	29963	98	
879	0	60576	29965	98	
880	0	60570	29968	98	
881	0	60562	29964	98	
882	0	60562	29968	98	
883	0	60571	29969	98	
884	0	60567	29961	98	
885	0	60575	29963	97	
886	0	60568	29959	97	
887	0	60581	29959	97	
888	0	60573	29966	97	
889	0	60568	29967	97	
890	0	60571	29969	97	
891	0	60570	29969	97	
892	0	60571	29973	97	
893	0	60574	29969	97	
894	0	60572	29966	97	
895	0	60569	29974	97	
896	0	60575	29975	97	
897	0	60576	29973	97	
898	0	60577	29976	97	
899	0	60579	29972	97	
900	0	60575	29968	97	
901	0	60579	29973	97	
902	0	60576	29969	97	
903	0	60581	29971	97	
904	0	60576	29975	97	
905	0	60581	29975	97	
906	0	60581	29969	97	
907	0	60580	29975	97	
908	0	60587	29979	97	
909	0	60580	29979	97	
910	0	60573	29974	97	
911	0	60583	29978	97	
912	0	60590	29975	97	
913	0	60583	29981	97	
914	0	60587	29973	97	
915	0	60589	29977	97	
916	0	60586	29980	97	
917	0	60589	29980	97	
918	0	60586	29978	97	
919	0	60589	29984	97	
920	0	60592	29986	97	
921	0	60583	29988	97	
922	0	60595	29985	97	
923	0	60594	29986	97	
924	0	60588	29983	97	
925	0	60596	29985	97	
926	0	60591	29989	97	
927	0	60599	29988	97	
928	0	60599	29983	97	
929	0	60594	29984	97	
930	0	60591	29993	97	
931	0	60593	29989	97	
932	0	60589	29988	97	
933	0	60599	29996	97	
934	0	60598	29995	97	
935	0	60590	29993	97	
936	0	60599	29995	97	
937	0	60601	29992	97	
938	0	60600	29997	97	
939	0	60587	29997	97	
940	0	60589	29995	97	
941	0	60599	29995	97	
942	0	60601	30002	97	
943	0	60599	29993	97	
944	0	60590	29992	97	
945	0	60596	29994	97	
946	0	60588	29993	97	
947	0	60592	29987	97	
948	0	60589	29989	97	
949	0	60583	29985	97	
950	0	60575	29983	97	
951	0	60572	29973	97	
952	0	60575	29973	97	
953	0	60571	29970	97	
954	0	60567	29971	97	
955	0	60572	29973	97	
956	0	60565	29969	97	
957	0	60565	29973	97	
958	0	60565	29967	97	
959	0	60568	29969	97	
960	0	60566	29967	97	
961	0	60571	29965	97	
962	0	60571	29966	97	
963	0	60561	29966	97	
964	0	60572	29965	97	
965	0	60566	29970	97	
966	0	60566	29964	97	
967	0	60565	29958	97	
968	0	60565	29962	97	
969	0	60565	29965	97	
970	0	60575	29964	97	
971	0	60574	29964	97	
972	0	60576	29960	97	
973	0	60568	29962	97	
974	0	60568	29965	97	
975	0	60568	29962	97	
976	0	60578	29965	97	
977	0	60568	29965	97	
978	0	60566	29963	97	
979	0	60569	29964	97	
980	0	60566	29961	97	
981	0	60569	29965	97	
982	0	60567	29962	97	
983	0	60575	29961	97	
984	0	60566	29961	97	
985	0	60568	29963	97	
986	0	60569	29966	97	
987	0	60572	29963	97	
988	0	60573	29960	97	
989	0	60568	29963	97	
990	0	60568	29962	97	
991	0	60569	29964	97	
992	0	60577	29964	97	
993	0	60574	29967	97	
994	0	60577	29973	97	
995	0	60580	29969	97	
996	0	60575	29970	97	
997	0	60572	29974	97	
998	0	60579	29968	97	
999	0	60578	29968	97	
1000	0	60572	29973	97	
1001	0	60581	29971	97	
1002	0	60580	29973	97	
1003	0	60576	29975	97	
1004	0	60576	29974	97	
1005	0	60586	29974	97	
1006	0	60575	29977	97	
1007	0	60580	29974	97	
1008	0	60585	29980	97	
1009	0	60585	29977	97	
1010	0	60586	29980	97	
1011	0	60578	29977	97	
1012	0	60584	29980	97	
1013	0	60584	29977	97	
1014	0	60589	29980	97	
1015	0	60587	29983	97	
1016	0	60586	29982	97	
1017	0	60586	29983	97	
1018	0	60584	29983	97	
1019	0	60589	29984	97	
1020	0	60593	29988	97	
1021	0	60593	29984	97	
1022	0	60599	29984	97	
1023	0	60598	29986	97	
1024	0	60588	29993	97	
1025	0	60599	29989	97	
1026	0	60589	29989	97	
1027	0	60597	29989	97	
1028	0	60604	29992	97	
1029	0	60601	29997	97	
1030	0	60602	29991	97	
1031	0	60598	29996	97	
1032	0	60605	29990	97	
1033	0	60597	29993	97	
1034	0	60598	29993	97	
1035	0	60606	29992	97	
1036	0	60597	29994	97	
1037	0	60613	29995	97	
1038	0	60605	29994	97	
1039	0	60603	30000	97	
1040	0	60601	29997	97	
1041	0	60610	29999	97	
1042	0	60602	30002	97	
1043	0	60604	30000	97	
1044	0	60604	29998	97	
1045	0	60594	29993	97	
1046	0	60590	29991	97	
1047	0	60591	29989	97	
1048	0	60584	29986	97	
1049	0	60585	29978	97	
1050	0	60574	29984	97	
1051	0	60572	29977	97	
1052	0	60572	29973	97	
1053	0	60575	29974	97	
1054	0	60571	29974	97	
1055	0	60564	29965	97	
1056	0	60576	29969	97	
1057	0	60570	29970	97	
1058	0	60572	29964	97	
1059	0	60566	29967	97	
1060	0	60568	29963	97	
1061	0	60573	29964	97	
1062	0	60575	29960	97	
1063	0	60567	29960	97	
1064	0	60568	29958	97	
1065	0	60568	29957	97	
1066	0	60562	29957	97	
1067	0	60562	29955	97	
1068	0	60569	29959	97	
1069	0	60567	29957	97	
1070	0	60572	29957	97	
1071	0	60565	29959	97	
1072	0	60569	29956	97	
1073	0	60568	29963	97	
1074	0	60567	29964	97	
1075	0	60572	29960	97	
1076	0	60572	29964	97	
1077	0	60572	29963	97	
1078	0	60574	29963	97	
1079	0	60573	29957	97	
1080	0	60563	29959	97	
1081	0	60568	29957	97	
1082	0	60573	29962	97	
1083	0	60575	29961	97	
1084	0	60570	29964	97	
1085	0	60570	29963	97	
1086	0	60577	29964	97	
1087	0	60573	29965	97	
1088	0	60574	29962	97	
1089	0	60570	29966	97	
1090	0	60570	29966	97	
1091	0	60577	29962	97	
1092	0	60574	29969	97	
1093	0	60579	29969	97	
1094	0	60582	29972	97	
1095	0	60580	29970	97	
1096	0	60579	29972	97	
1097	0	60579	29967	97	
1098	0	60578	29972	97	
1099	0	60577	29966	97	
1100	0	60579	29966	97	
1101	0	60582	29967	97	
1102	0	60581	29973	97	
1103	0	60587	29974	97	
1104	0	60579	29972	97	
1105	0	60581	29970	97	
1106	0	60579	29974	97	
1107	0	60583	29971	97	
1108	0	60581	29972	97	
1109	0	60589	29972	97	
1110	0	60587	29974	97	
1111	0	60590	29977	97	
1112	0	60582	29972	97	
1113	0	60587	29976	97	
1114	0	60586	29972	97	
1115	0	60587	29979	97	
1116	0	60593	29979	97	
1117	0	60592	29973	97	
1118	0	60598	29975	97	
1119	0	60598	29976	97	
1120	0	60591	29979	97	
1121	0	60589	29979	97	
1122	0	60594	29985	97	
1123	0	60591	29985	97	
1124	0	60591	29985	97	
1125	0	60603	29990	97	
1126	0	60605	29989	97	
1127	0	60606	29988	97	
1128	0	60604	29985	97	
1129	0	60602	29988	97	
1130	0	60600	29989	97	
1131	0	60601	29987	97	
1132	0	60606	29991	97	
1133	0	60601	29992	97	
1134	0	60604	29989	97	
1135	0	60592	29994	97	
1136	0	60605	29990	97	
1137	0	60604	29986	97	
1138	0	60599	29989	97	
1139	0	60602	29992	97	
1140	0	60606	29993	97	
1141	0	60601	29993	97	
1142	0	60603	29988	97	
1143	0	60610	29991	97	
1144	0	60604	29991	97	
1145	0	60605	29993	97	
1146	0	60605	29988	97	
1147	0	60601	29987	97	
1148	0	60600	29988	97	
1149	0	60597	29988	97	
1150	0	60579	29980	97	
1151	0	60575	29973	97	
1152	0	60580	29969	97	
1153	0	60574	29966	97	
1154	0	60579	29966	97	
1155	0	60577	29964	97	
1156	0	60571	29963	97	
1157	0	60575	29957	97	
1158	0	60578	29958	97	
1159	0	60571	29961	97	
1160	0	60569	29958	97	
1161	0	60571	29960	97	
1162	0	60574	29955	97	
1163	0	60570	29952	97	
1164	0	60574	29961	97	
1165	0	60569	29957	97	
1166	0	60567	29956	97	
1167	0	60563	29954	97	
1168	0	60568	29954	97	
1169	0	60571	29953	97	
1170	0	60574	29958	97	
1171	0	60569	29951	97	
1172	0	60568	29952	97	
1173	0	60579	29955	97	
1174	0	60575	29957	97	
1175	0	60581	29957	97	
1176	0	60578	29957	97	
1177	0	60565	29954	97	
1178	0	60574	29956	97	
1179	0	60581	29953	97	
1180	0	60567	29954	97	
1181	0	60571	29958	97	
1182	0	60565	29953	97	
1183	0	60577	29952	97	
1184	0	60572	29956	97	
1185	0	60579	29955	98	
1186	0	60576	29951	98	
1187	0	60578	29950	98	
1188	0	60571	29953	98	
1189	0	60575	29954	98	
1190	0	60579	29954	98	
1191	0	60576	29949	98	
1192	0	60575	29957	98	
1193	0	60570	29951	98	
1194	0	60571	29953	98	
1195	0	60576	29953	98	
1196	0	60576	29958	98	
1197	0	60578	29960	98	
1198	0	60586	29958	98	
1199	0	60579	29953	98	
1200	0	60580	29965	98	
1201	0	60579	29965	98	
1202	0	60587	29966	98	
1203	0	60583	29968	98	
1204	0	60589	29964	98	
1205	0	60576	29965	98	
1206	0	60578	29963	98	
1207	0	60584	29959	98	
1208	0	60588	29963	98	
1209	0	60581	29964	98	
1210	0	60584	29967	98	
1211	0	60586	29968	98	
1212	0	60586	29969	98	
1213	0	60590	29968	98	
1214	0	60588	29966	98	
1215	0	60595	29971	98	
1216	0	60594	29968	98	
1217	0	60593	29978	98	
1218	0	60589	29972	98	
1219	0	60597	29971	98	
1220	0	60598	29973	98	
1221	0	60591	29973	98	
1222	0	60593	29973	98	
1223	0	60592	29978	98	
1224	0	60598	29983	98	
1225	0	60593	29975	98	
1226	0	60599	29980	98	
1227	0	60594	29975	98	
1228	0	60595	29982	98	
1229	0	60593	29980	98	
1230	0	60598	29985	98	
1231	0	60598	29979	98	
1232	0	60606	29986	98	
1233	0	60598	29977	98	
1234	0	60598	29979	98	
1235	0	60602	29983	98	
1236	0	60597	29982	98	
1237	0	60603	29984	98	
1238	0	60599	29986	98	
1239	0	60597	29984	98	
1240	0	60608	29987	98	
1241	0	60603	29990	98	
1242	0	60611	29989	98	
1243	0	60613	29987	98	
1244	0	60611	29985	98	
1245	0	60597	29981	98	
1246	0	60594	29982	98	
1247	0	60598	29979	98	
1248	0	60593	29977	98	
1249	0	60581	29975	98	
1250	0	60587	29966	98	
1251	0	60569	29964	98	
1252	0	60569	29962	98	
1253	0	60577	29959	98	
1254	0	60566	29960	98	
1255	0	60567	29959	98	
1256	0	60575	29960	98	
1257	0	60578	29958	98	
1258	0	60575	29955	98	
1259	0	60568	29959	98	
1260	0	60578	29952	98	
1261	0	60572	29953	98	
1262	0	60579	29954	98	
1263	0	60564	29953	98	
1264	0	60575	29951	98	
1265	0	60571	29950	98	
1266	0	60564	29948	98	
1267	0	60567	29951	98	
1268	0	60574	29954	98	
1269	0	60563	29954	98	
1270	0	60578	29954	98	
1271	0	60565	29956	98	
1272	0	60577	29950	98	
1273	0	60575	29955	98	
1274	0	60572	29948	98	
1275	0	60571	29948	98	
1276	0	60575	29948	98	
1277	0	60564	29955	98	
1278	0	60571	29952	98	
1279	0	60573	29953	98	
1280	0	60574	29951	98	
1281	0	60570	29958	98	
1282	0	60575	29954	98	
1283	0	60576	29953	98	
1284	0	60569	29954	98	
1285	0	60572	29954	98	
1286	0	60575	29961	98	
1287	0	60576	29952	98	
1288	0	60584	29958	98	
1289	0	60571	29952	98	
1290	0	60578	29954	98	
1291	0	60582	29956	98	
1292	0	60570	29957	98	
1293	0	60573	29956	98	
1294	0	60580	29954	98	
1295	0	60577	29961	98	
1296	0	60577	29967	98	
1297	0	60580	29961	98	
1298	0	60577	29961	98	
1299	0	60582	29964	98	
1300	0	60581	29962	98	
1301	0	60586	29962	98	
1302	0	60579	29961	98	
1303	0	60585	29962	98	
1304	0	60587	29965	98	
1305	0	60588	29968	98	
1306	0	60587	29969	98	
1307	0	60591	29971	98	
1308	0	60588	29970	98	
1309	0	60583	29968	98	
1310	0	60588	29971	98	
1311	0	60584	29971	98	
1312	0	60584	29975	98	
1313	0	60584	29970	98	
1314	0	60588	29969	98	
1315	0	60594	29975	98	
1316	0	60589	29974	98	
1317	0	60585	29978	98	
1318	0	60593	29973	98	
1319	0	60588	29973	98	
1320	0	60597	29975	98	
1321	0	60590	29980	98	
1322	0	60586	29975	98	
1323	0	60596	29975	98	
1324	0	60598	29976	98	
1325	0	60591	29976	98	
1326	0	60595	29979	98	
1327	0	60596	29980	98	
1328	0	60599	29982	98	
1329	0	60604	29985	98	
1330	0	60596	29984	98	
1331	0	60597	29986	98	
1332	0	60603	29984	98	
1333	0	60600	29984	98	
1334	0	60606	29990	98	
1335	0	60606	29982	98	
1336	0	60601	29987	98	
1337	0	60595	29983	98	
1338	0	60602	29990	98	
1339	0	60606	29986	98	
1340	0	60600	29994	98	
1341	0	60608	29994	98	
1342	0	60601	29992	98	
1343	0	60601	29992	98	
1344	0	60594	29988	98	
1345	0	60592	29986	98	
1346	0	60589	29984	98	
1347	0	60593	29975	98	
1348	0	60580	29969	98	
1349	0	60573	29966	98	
1350	0	60570	29963	98	
1351	0	60566	29968	98	
1352	0	60576	29956	98	
1353	0	60570	29956	98	
1354	0	60573	29955	98	
1355	0	60576	29955	98	
1356	0	60566	29955	98	
1357	0	60570	29957	98	
1358	0	60570	29954	98	
1359	0	60567	29955	98	
1360	0	60568	29953	98	
1361	0	60564	29955	98	
1362	0	60563	29951	98	
1363	0	60563	29949	98	
1364	0	60561	29946	98	
1365	0	60571	29950	98	
1366	0	60558	29946	98	
1367	0	60567	29941	98	
1368	0	60564	29946	98	
1369	0	60568	29948	98	
1370	0	60565	29950	98	
1371	0	60570	29948	98	
1372	0	60563	29945	98	
1373	0	60564	29947	98	
1374	0	60558	29948	98	
1375	0	60564	29951	98	
1376	0	60563	29953	98	
1377	0	60559	29950	98	
1378	0	60567	29950	98	
1379	0	60561	29950	98	
1380	0	60570	29952	98	
1381	0	60576	29951	98	
1382	0	60566	29950	98	
1383	0	60564	29952	98	
1384	0	60564	29954	98	
1385	0	60564	29954	98	
1386	0	60573	29953	98	
1387	0	60570	29958	98	
1388	0	60575	29954	98	
1389	0	60576	29955	98	
1390	0	60575	29961	98	
1391	0	60575	29952	98	
1392	0	60577	29958	98	
1393	0	60577	29957	98	
1394	0	60569	29955	98	
1395	0	60570	29955	98	
1396	0	60569	29956	98	
1397	0	60577	29959	98	
1398	0	60580	29963	98	
1399	0	60571	29959	98	
1400	0	60588	29960	98	
1401	0	60582	29962	98	
1402	0	60583	29962	98	
1403	0	60579	29968	98	
1404	0	60576	29965	98	
1405	0	60582	29962	98	
1406	0	60578	29969	98	
1407	0	60583	29965	98	
1408	0	60583	29966	98	
1409	0	60580	29966	98	
1410	0	60581	29968	98	
1411	0	60585	29965	98	
1412	0	60587	29968	98	
1413	0	60580	29966	98	
1414	0	60592	29969	98	
1415	0	60587	29969	98	
1416	0	60587	29966	98	
1417	0	60589	29974	98	
1418	0	60589	29974	98	
1419	0	60591	29971	98	
1420	0	60591	29971	98	
1421	0	60585	29977	98	
1422	0	60592	29978	98	
1423	0	60594	29973	98	
1424	0	60588	29978	98	
1425	0	60594	29973	98	
1426	0	60595	29976	98	
1427	0	60594	29980	98	
1428	0	60601	29979	98	
1429	0	60593	29978	98	
1430	0	60603	29982	98	
1431	0	60600	29983	98	
1432	0	60601	29979	98	
1433	0	60598	29982	98	
1434	0	60596	29981	98	
1435	0	60594	29984	98	
1436	0	60598	29984	98	
1437	0	60595	29984	98	
1438	0	60603	29983	98	
1439	0	60600	29987	98	
1440	0	60598	29991	98	
1441	0	60600	29987	98	
1442	0	60601	29989	98	
1443	0	60604	29986	98	
1444	0	60598	29988	98	
1445	0	60595	29981	98	
1446	0	60592	29983	98	
1447	0	60591	29978	98	
1448	0	60581	29970	98	
1449	0	60579	29972	98	
1450	0	60566	29967	98	
1451	0	60568	29964	98	
1452	0	60565	29958	98	
1453	0	60566	29956	98	
1454	0	60571	29961	98	
1455	0	60566	29960	98	
1456	0	60565	29952	98	
1457	0	60570	29957	98	
1458	0	60563	29955	98	
1459	0	60563	29951	98	
1460	0	60562	29955	98	
1461	0	60559	29952	98	
1462	0	60569	29946	98	
1463	0	60556	29948	98	
1464	0	60562	29944	98	
1465	0	60558	29942	98	
1466	0	60558	29940	98	
1467	0	60563	29942	98	
1468	0	60558	29938	98	
1469	0	60559	29943	98	
1470	0	60553	29940	98	
1471	0	60562	29941	98	
1472	0	60554	29943	98	
1473	0	60566	29947	98	
1474	0	60567	29942	98	
1475	0	60567	29939	98	
1476	0	60562	29941	98	
1477	0	60563	29941	98	
1478	0	60570	29940	98	
1479	0	60569	29938	98	
1480	0	60560	29946	98	
1481	0	60562	29944	98	
1482	0	60561	29941	98	
1483	0	60567	29944	98	
1484	0	60569	29949	98	
1485	0	60562	29949	98	
1486	0	60571	29948	98	
1487	0	60561	29946	98	
1488	0	60564	29945	98	
1489	0	60569	29946	98	
1490	0	60563	29947	98	
1491	0	60564	29951	98	
1492	0	60571	29947	98	
1493	0	60571	29947	98	
1494	0	60572	29955	98	
1495	0	60574	29951	98	
1496	0	60574	29950	98	
1497	0	60568	29953	98	
1498	0	60568	29956	98	
1499	0	60580	29956	98	
1500	0	60572	29959	98	
1501	0	60573	29955	98	
1502	0	60573	29954	98	
1503	0	60576	29957	98	
1504	0	60582	29965	98	
1505	0	60583	29959	98	
1506	0	60577	29960	98	
1507	0	60576	29961	98	
1508	0	60578	29963	98	
1509	0	60579	29967	98	
1510	0	60581	29965	98	
1511	0	60587	29963	98	
1512	0	60581	29963	98	
1513	0	60588	29969	98	
1514	0	60585	29971	98	
1515	0	60585	29969	98	
1516	0	60594	29969	98	
1517	0	60588	29968	98	
1518	0	60587	29965	98	
1519	0	60593	29965	98	
1520	0	60596	29968	98	
1521	0	60589	29970	98	
1522	0	60591	29971	98	
1523	0	60589	29978	98	
1524	0	60589	29976	98	
1525	0	60598	29973	98	
1526	0	60597	29977	98	
1527	0	60601	29974	98	
1528	0	60593	29975	98	
1529	0	60600	29982	98	
1530	0	60594	29978	98	
1531	0	60596	29977	98	
1532	0	60593	29982	98	
1533	0	60602	29977	98	
1534	0	60594	29979	98	
1535	0	60603	29980	98	
1536	0	60594	29982	98	
1537	0	60599	29983	98	
1538	0	60605	29981	98	
1539	0	60600	29983	98	
1540	0	60600	29985	98	
1541	0	60610	29987	98	
1542	0	60601	29981	98	
1543	0	60604	29988	98	
1544	0	60602	29990	98	
1545	0	60599	29987	98	
1546	0	60602	29986	98	
1547	0	60600	29988	98	
1548	0	60593	29984	98	
1549	0	60584	29977	98	
1550	0	60584	29974	98	
1551	0	60587	29968	98	
1552	0	60577	29964	98	
1553	0	60568	29966	98	
1554	0	60574	29964	98	
1555	0	60575	29965	98	
1556	0	60571	29956	98	
1557	0	60568	29958	98	
1558	0	60568	29960	98	
1559	0	60569	29956	98	
1560	0	60569	29956	98	
1561	0	60573	29954	98	
1562	0	60576	29956	98	
1563	0	60573	29952	98	
1564	0	60570	29951	98	
1565	0	60568	29953	98	
1566	0	60561	29949	98	
1567	0	60568	29945	98	
1568	0	60561	29947	98	
1569	0	60568	29948	98	
1570	0	60566	29945	98	
1571	0	60567	29941	98	
1572	0	60563	29945	98	
1573	0	60562	29941	98	
1574	0	60564	29942	98	
1575	0	60557	29945	98	
1576	0	60564	29940	98	
1577	0	60563	29940	98	
1578	0	60564	29947	98	
1579	0	60561	29942	98	
1580	0	60560	29942	98	
1581	0	60562	29946	98	
1582	0	60561	29947	98	
1583	0	60564	29946	98	
1584	0	60570	29947	98	
1585	0	60564	29947	98	
1586	0	60575	29944	98	
1587	0	60563	29949	98	
1588	0	60565	29950	98	
1589	0	60565	29948	98	
1590	0	60568	29946	98	
1591	0	60564	29948	98	
1592	0	60575	29951	98	
1593	0	60571	29950	98	
1594	0	60567	29951	98	
1595	0	60570	29951	98	
1596	0	60565	29956	98	
1597	0	60581	29954	98	
1598	0	60577	29956	98	
1599	0	60574	29952	98	
1600	0	60573	29953	98	
1601	0	60576	29954	98	
1602	0	60569	29954	98	
1603	0	60582	29957	98	
1604	0	60579	29958	98	
1605	0	60583	29958	98	
1606	0	60585	29955	98	
1607	0	60574	29963	98	
1608	0	60590	29961	98	
1609	0	60586	29957	98	
1610	0	60585	29961	98	
1611	0	60588	29964	98	
1612	0	60589	29963	98	
1613	0	60593	29961	98	
1614	0	60590	29969	98	
1615	0	60589	29967	98	
1616	0	60586	29961	98	
1617	0	60584	29966	98	
1618	0	60584	29966	98	
1619	0	60593	29974	98	
1620	0	60585	29973	98	
1621	0	60592	29976	98	
1622	0	60591	29975	98	
1623	0	60587	29977	98	
1624	0	60594	29976	98	
1625	0	60603	29975	98	
1626	0	60603	29979	98	
1627	0	60598	29982	98	
1628	0	60602	29980	98	
1629	0	60596	29980	98	
1630	0	60593	29979	98	
1631	0	60602	29975	98	
1632	0	60598	29974	98	
1633	0	60600	29985	98	
1634	0	60596	29977	98	
1635	0	60605	29979	98	
1636	0	60600	29979	98	
1637	0	60604	29986	98	
1638	0	60603	29988	98	
1639	0	60606	29988	98	
1640	0	60601	29983	98	
1641	0	60612	29984	98	
1642	0	60604	29986	98	
1643	0	60612	29987	98	
1644	0	60611	29986	98	
1645	0	60620	29988	98	
1646	0	60609	29989	98	
1647	0	60606	29992	98	
1648	0	60613	29990	98	
1649	0	60601	29988	98	
1650	0	60608	29987	98	
1651	0	60601	29988	98	
1652	0	60594	29980	98	
1653	0	60581	29973	98	
1654	0	60582	29973	98	
1655	0	60577	29969	98	
1656	0	60579	29965	98	
1657	0	60580	29968	98	
1658	0	60578	29966	98	
1659	0	60579	29964	98	
1660	0	60568	29965	98	
1661	0	60574	29958	98	
1662	0	60566	29956	98	
1663	0	60573	29958	98	
1664	0	60569	29956	98	
1665	0	60575	29955	98	
1666	0	60572	29955	98	
1667	0	60568	29956	98	
1668	0	60575	29953	98	
1669	0	60573	29954	98	
1670	0	60571	29951	98	
1671	0	60566	29956	98	
1672	0	60575	29948	98	
1673	0	60574	29944	98	
1674	0	60564	29947	98	
1675	0	60565	29945	98	
1676	0	60569	29947	98	
1677	0	60562	29948	98	
1678	0	60566	29950	98	
1679	0	60561	29950	98	
1680	0	60561	29949	98	
1681	0	60570	29955	98	
1682	0	60561	29957	98	
1683	0	60574	29950	98	
1684	0	60566	29955	98	
1685	0	60570	29952	98	
1686	0	60573	29959	98	
1687	0	60576	29958	98	
1688	0	60570	29949	98	
1689	0	60578	29949	98	
1690	0	60568	29953	98	
1691	0	60570	29952	98	
1692	0	60568	29953	98	
1693	0	60579	29956	98	
1694	0	60576	29951	98	
1695	0	60575	29958	98	
1696	0	60579	29958	98	
1697	0	60587	29959	98	
1698	0	60581	29956	98	
1699	0	60578	29962	98	
1700	0	60582	29957	98	
1701	0	60582	29966	98	
1702	0	60576	29964	98	
1703	0	60582	29965	98	
1704	0	60582	29969	98	
1705	0	60580	29967	98	
1706	0	60587	29970	98	
1707	0	60582	29976	98	
1708	0	60581	29974	98	
1709	0	60586	29974	98	
1710	0	60583	29975	98	
1711	0	60582	29971	98	
1712	0	60587	29975	98	
1713	0	60594	29977	98	
1714	0	60582	29974	98	
1715	0	60586	29973	98	
1716	0	60588	29973	98	
1717	0	60594	29970	98	
1718	0	60596	29978	98	
1719	0	60595	29979	98	
1720	0	60599	29972	98	
1721	0	60591	29976	98	
1722	0	60593	29976	98	
1723	0	60599	29978	98	
1724	0	60602	29974	98	
1725	0	60606	29978	98	
1726	0	60591	29982	98	
1727	0	60599	29975	98	
1728	0	60596	29984	98	
1729	0	60601	29986	98	
1730	0	60609	29989	98	
1731	0	60603	29984	98	
1732	0	60598	29987	98	
1733	0	60606	29988	98	
1734	0	60606	29990	98	
1735	0	60609	29985	98	
1736	0	60604	29989	98	
1737	0	60613	29992	98	
1738	0	60611	29989	98	
1739	0	60613	29995	98	
1740	0	60613	29998	98	
1741	0	60607	29997	98	
1742	0	60601	29995	98	
1743	0	60602	29996	98	
1744	0	60611	29996	98	
1745	0	60618	29999	98	
1746	0	60609	29997	98	
1747	0	60608	30000	98	
1748	0	60619	29995	98	
1749	0	60619	30001	98	
1750	0	60611	29999	98	
1751	0	60613	29999	98	
1752	0	60616	29998	98	
1753	0	60603	29996	98	
1754	0	60603	29995	98	
1755	0	60601	29993	98	
1756	0	60596	29989	98	
1757	0	60586	29984	98	
1758	0	60585	29980	98	
1759	0	60586	29976	98	
1760	0	60587	29977	98	
1761	0	60581	29978	98	
1762	0	60578	29970	98	
1763	0	60581	29978	98	
1764	0	60583	29979	98	
1765	0	60588	29975	98	
1766	0	60579	29970	98	
1767	0	60582	29973	98	
1768	0	60577	29968	98	
1769	0	60577	29968	98	
1770	0	60583	29970	98	
1771	0	60578	29971	98	
1772	0	60589	29963	98	
1773	0	60580	29966	98	
1774	0	60586	29963	98	
1775	0	60584	29966	98	
1776	0	60581	29965	98	
1777	0	60583	29973	98	
1778	0	60592	29971	98	
1779	0	60584	29975	98	
1780	0	60588	29970	98	
1781	0	60584	29973	98	
1782	0	60585	29969	98	
1783	0	60584	29971	98	
1784	0	60593	29963	98	
1785	0	60590	29975	97	
1786	0	60584	29968	97	
1787	0	60583	29969	97	
1788	0	60581	29972	97	
1789	0	60585	29969	97	
1790	0	60587	29969	97	
1791	0	60585	29969	97	
1792	0	60583	29974	97	
1793	0	60582	29970	97	
1794	0	60585	29972	97	
1795	0	60593	29971	97	
1796	0	60594	29970	97	
1797	0	60598	29978	97	
1798	0	60591	29974	97	
1799	0	60590	29978	97	
1800	0	60592	29980	97	
1801	0	60592	29978	97	
1802	0	60592	29977	97	
1803	0	60594	29974	97	
1804	0	60598	29973	97	
1805	0	60600	29971	97	
1806	0	60608	29976	97	
1807	0	60604	29978	97	
1808	0	60597	29979	97	
1809	0	60597	29984	97	
1810	0	60598	29985	97	
1811	0	60597	29984	97	
1812	0	60594	29983	97	
1813	0	60603	29982	97	
1814	0	60601	29982	97	
1815	0	60598	29984	97	
1816	0	60599	29984	97	
1817	0	60606	29987	97	
1818	0	60606	29984	97	
1819	0	60606	29985	97	
1820	0	60601	29988	97	
1821	0	60607	29989	97	
1822	0	60609	29987	97	
1823	0	60599	29988	97	
1824	0	60613	29988	97	
1825	0	60601	29989	97	
1826	0	60608	29989	97	
1827	0	60606	29994	97	
1828	0	60610	29987	97	
1829	0	60618	29991	97	
1830	0	60617	29995	97	
1831	0	60613	29991	97	
1832	0	60623	29991	97	
1833	0	60616	29992	97	
1834	0	60610	29999	97	
1835	0	60616	29999	97	
1836	0	60620	29998	97	
1837	0	60609	29994	97	
1838	0	60617	29995	97	
1839	0	60619	30003	97	
1840	0	60615	30001	97	
1841	0	60612	29997	97	
1842	0	60622	30000	97	
1843	0	60610	30000	97	
1844	0	60620	30001	97	
1845	0	60619	30008	97	
1846	0	60621	30007	97	
1847	0	60623	30006	97	
1848	0	60626	30010	97	
1849	0	60622	30006	97	
1850	0	60617	30006	97	
1851	0	60620	30002	97	
1852	0	60609	30000	97	
1853	0	60607	29999	97	
1854	0	60605	29987	97	
1855	0	60607	29986	97	
1856	0	60599	29981	97	
1857	0	60593	29979	97	
1858	0	60598	29978	97	
1859	0	60588	29978	97	
1860	0	60592	29979	97	
1861	0	60588	29974	97	
1862	0	60597	29976	97	
1863	0	60591	29977	97	
1864	0	60594	29972	97	
1865	0	60596	29978	97	
1866	0	60594	29974	97	
1867	0	60587	29974	97	
1868	0	60596	29973	97	
1869	0	60592	29979	97	
1870	0	60589	29971	97	
1871	0	60584	29973	97	
1872	0	60594	29973	97	
1873	0	60589	29972	97	
1874	0	60597	29972	97	
1875	0	60591	29975	97	
1876	0	60594	29972	97	
1877	0	60584	29979	97	
1878	0	60595	29975	97	
1879	0	60593	29975	97	
1880	0	60591	29973	97	
1881	0	60595	29972	97	
1882	0	60597	29973	97	
1883	0	60588	29974	97	
1884	0	60589	29974	97	
1885	0	60594	29976	97	
1886	0	60588	29968	97	
1887	0	60593	29975	97	
1888	0	60585	29975	97	
1889	0	60589	29979	97	
1890	0	60596	29975	97	
1891	0	60594	29972	97	
1892	0	60585	29973	97	
1893	0	60593	29979	97	
1894	0	60589	29976	97	
1895	0	60591	29977	97	
1896	0	60599	29977	97	
1897	0	60597	29983	97	
1898	0	60595	29980	97	
1899	0	60597	29981	97	
1900	0	60604	29981	97	
1901	0	60602	29978	97	
1902	0	60606	29982	97	
1903	0	60595	29988	97	
1904	0	60605	29986	97	
1905	0	60607	29981	97	
1906	0	60601	29985	97	
1907	0	60600	29984	97	
1908	0	60598	29979	97	
1909	0	60600	29987	97	
1910	0	60609	29980	97	
1911	0	60602	29986	97	
1912	0	60608	29983	97	
1913	0	60609	29985	97	
1914	0	60609	29982	97	
1915	0	60601	29986	97	
1916	0	60610	29986	97	
1917	0	60616	29985	97	
1918	0	60612	29986	97	
1919	0	60611	29994	97	
1920	0	60611	29986	97	
1921	0	60618	29993	97	
1922	0	60609	29995	97	
1923	0	60618	29994	97	
1924	0	60616	29993	97	
1925	0	60620	29993	97	
1926	0	60622	29995	97	
1927	0	60617	29998	97	
1928	0	60618	29994	97	
1929	0	60620	29998	97	
1930	0	60614	30001	97	
1931	0	60620	30000	97	
1932	0	60624	29998	97	
1933	0	60628	30000	97	
1934	0	60618	30003	97	
1935	0	60618	30003	97	
1936	0	60629	30001	97	
1937	0	60620	30002	97	
1938	0	60618	30006	97	
1939	0	60631	30003	97	
1940	0	60624	30005	97	
1941	0	60625	30013	97	
1942	0	60626	30006	97	
1943	0	60627	30010	97	
1944	0	60636	30009	97	
1945	0	60629	30008	97	
1946	0	60621	30003	97	
1947	0	60626	30006	97	
1948	0	60622	30009	97	
1949	0	60621	29998	97	
1950	0	60608	30000	97	
1951	0	60608	29999	97	
1952	0	60595	29994	97	
1953	0	60601	29990	97	
1954	0	60590	29984	97	
1955	0	60597	29982	97	
1956	0	60591	29980	97	
1957	0	60587	29977	97	
1958	0	60595	29974	97	
1959	0	60597	29974	97	
1960	0	60593	29973	97	
1961	0	60593	29968	97	
1962	0	60591	29968	97	
1963	0	60590	29972	97	
1964	0	60587	29970	97	
1965	0	60585	29967	97	
1966	0	60585	29969	97	
1967	0	60586	29963	97	
1968	0	60584	29963	97	
1969	0	60578	29968	97	
1970	0	60587	29965	97	
1971	0	60592	29969	97	
1972	0	60584	29960	97	
1973	0	60583	29965	97	
1974	0	60589	29961	97	
1975	0	60589	29965	97	
1976	0	60583	29964	97	
1977	0	60591	29967	97	
1978	0	60582	29966	97	
1979	0	60594	29965	97	
1980	0	60592	29962	97	
1981	0	60588	29966	97	
1982	0	60584	29957	97	
1983	0	60590	29964	97	
1984	0	60583	29965	97	
1985	0	60588	29960	97	
1986	0	60589	29968	97	
1987	0	60591	29965	97	
1988	0	60596	29968	97	
1989	0	60592	29965	97	
1990	0	60587	29965	97	
1991	0	60589	29966	97	
1992	0	60593	29970	97	
1993	0	60596	29970	97	
1994	0	60593	29970	97	
1995	0	60593	29971	97	
1996	0	60597	29974	97	
1997	0	60601	29966	97	
1998	0	60591	29971	97	
1999	0	60599	29969	97	
2000	0	60600	29972	97	
2001	0	60603	29973	97	
2002	0	60598	29976	97	
2003	0	60594	29971	97	
2004	0	60601	29970	97	
2005	0	60595	29973	97	
2006	0	60598	29975	97	
2007	0	60598	29970	97	
2008	0	60610	29976	97	
2009	0	60606	29977	97	
2010	0	60608	29978	97	
2011	0	60613	29975	97	
2012	0	60605	29979	97	
2013	0	60602	29986	97	
2014	0	60603	29983	97	
2015	0	60605	29980	97	
2016	0	60599	29986	97	
2017	0	60605	29983	97	
2018	0	60611	29983	97	
2019	0	60607	29985	97	
2020	0	60608	29989	97	
2021	0	60614	29987	97	
2022	0	60611	29985	97	
2023	0	60610	29982	97	
2024	0	60609	29986	97	
2025	0	60614	29985	97	
2026	0	60614	29984	97	
2027	0	60614	29987	97	
2028	0	60617	29989	97	
2029	0	60616	29995	97	
2030	0	60616	29996	97	
2031	0	60621	29996	97	
2032	0	60627	29994	97	
2033	0	60620	29996	97	
2034	0	60615	29997	97	
2035	0	60624	29991	97	
2036	0	60626	29996	97	
2037	0	60618	29996	97	
2038	0	60621	29997	97	
2039	0	60629	29998	97	
2040	0	60629	29999	97	
2041	0	60625	29999	97	
2042	0	60623	30001	97	
2043	0	60624	30000	97	
2044	0	60627	30006	97	
2045	0	60632	30002	97	
2046	0	60623	29999	97	
2047	0	60625	29999	97	
2048	0	60615	30000	97	
2049	0	60610	29995	97	
2050	0	60607	29985	97	
2051	0	60609	29987	97	
2052	0	60598	29978	97	
2053	0	60593	29978	97	
2054	0	60590	29976	97	
2055	0	60600	29972	97	
2056	0	60593	29968	97	
2057	0	60596	29970	97	
2058	0	60583	29966	97	
2059	0	60590	29967	97	
2060	0	60584	29965	97	
2061	0	60591	29961	97	
2062	0	60591	29964	97	
2063	0	60591	29959	97	
2064	0	60582	29964	97	
2065	0	60587	29960	97	
2066	0	60583	29961	97	
2067	0	60577	29960	97	
2068	0	60576	29960	97	
2069	0	60587	29951	97	
2070	0	60588	29954	97	
2071	0	60581	29955	97	
2072	0	60588	29961	97	
2073	0	60583	29953	97	
2074	0	60585	29957	97	
2075	0	60591	29961	97	
2076	0	60582	29957	97	
2077	0	60585	29958	97	
2078	0	60579	29959	97	
2079	0	60593	29959	97	
2080	0	60589	29958	97	
2081	0	60590	29956	97	
2082	0	60586	29958	97	
2083	0	60583	29955	97	
2084	0	60589	29955	97	
2085	0	60591	29957	98	
2086	0	60585	29951	98	
2087	0	60591	29956	98	
2088	0	60580	29961	98	
2089	0	60588	29959	98	
2090	0	60581	29958	98	
2091	0	60591	29961	98	
2092	0	60587	29961	98	
2093	0	60594	29960	98	
2094	0	60587	29959	98	
2095	0	60588	29961	98	
2096	0	60592	29958	98	
2097	0	60589	29961	98	
2098	0	60590	29956	98	
2099	0	60594	29959	98	
2100	0	60600	29964	98	
2101	0	60600	29960	98	
2102	0	60601	29965	98	
2103	0	60600	29962	98	
2104	0	60600	29973	98	
2105	0	60602	29979	98	
2106	0	60598	29974	98	
2107	0	60607	29969	98	
2108	0	60600	29972	98	
2109	0	60594	29972	98	
2110	0	60595	29976	98	
2111	0	60607	29974	98	
2112	0	60607	29977	98	
2113	0	60606	29979	98	
2114	0	60605	29980	98	
2115	0	60612	29980	98	
2116	0	60608	29981	98	
2117	0	60619	29984	98	
2118	0	60604	29983	98	
2119	0	60605	29980	98	
2120	0	60610	29982	98	
2121	0	60620	29988	98	
2122	0	60616	29985	98	
2123	0	60619	29982	98	
2124	0	60611	29984	98	
2125	0	60613	29982	98	
2126	0	60617	29985	98	
2127	0	60622	29985	98	
2128	0	60622	29987	98	
2129	0	60627	29988	98	
2130	0	60617	29982	98	
2131	0	60622	29983	98	
2132	0	60617	29990	98	
2133	0	60620	29985	98	
2134	0	60624	29985	98	
2135	0	60626	29992	98	
2136	0	60626	29995	98	
2137	0	60624	29991	98	
2138	0	60621	29996	98	
2139	0	60626	29992	98	
2140	0	60625	29994	98	
2141	0	60621	29994	98	
2142	0	60625	29996	98	
2143	0	60626	30001	98	
2144	0	60626	29996	98	
2145	0	60629	29999	98	
2146	0	60628	29997	98	
2147	0	60634	30006	98	
2148	0	60620	30000	98	
2149	0	60618	29994	98	
2150	0	60614	29990	98	
2151	0	60608	29984	98	
2152	0	60600	29982	98	
2153	0	60608	29986	98	
2154	0	60602	29975	98	
2155	0	60591	29972	98	
2156	0	60600	29975	98	
2157	0	60587	29973	98	
2158	0	60591	29971	98	
2159	0	60586	29965	98	
2160	0	60598	29965	98	
2161	0	60594	29964	98	
2162	0	60591	29960	98	
2163	0	60588	29964	98	
2164	0	60591	29962	98	
2165	0	60589	29962	98	
2166	0	60590	29959	98	
2167	0	60590	29959	98	
2168	0	60595	29955	98	
2169	0	60589	29951	98	
2170	0	60586	29954	98	
2171	0	60592	29961	98	
2172	0	60589	29952	98	
2173	0	60591	29961	98	
2174	0	60593	29960	98	
2175	0	60594	29962	98	
2176	0	60588	29962	98	
2177	0	60597	29961	98	
2178	0	60589	29964	98	
2179	0	60595	29962	98	
2180	0	60598	29959	98	
2181	0	60584	29956	98	
2182	0	60596	29962	98	
2183	0	60589	29963	98	
2184	0	60597	29958	98	
2185	0	60594	29963	98	
2186	0	60599	29962	98	
2187	0	60589	29958	98	
2188	0	60596	29958	98	
2189	0	60595	29966	98	
2190	0	60587	29958	98	
2191	0	60593	29957	98	
2192	0	60595	29961	98	
2193	0	60600	29963	98	
2194	0	60599	29966	98	
2195	0	60603	29970	98	
2196	0	60598	29971	98	
2197	0	60594	29966	98	
2198	0	60608	29972	98	
2199	0	60601	29973	98	
2200	0	60605	29974	98	
2201	0	60595	29976	98	
2202	0	60608	29973	98	
2203	0	60599	29975	98	
2204	0	60609	29974	98	
2205	0	60604	29975	98	
2206	0	60595	29974	98	
2207	0	60610	29979	98	
2208	0	60604	29976	98	
2209	0	60607	29979	98	
2210	0	60612	29979	98	
2211	0	60606	29975	98	
2212	0	60613	29974	98	
2213	0	60604	29976	98	
2214	0	60614	29979	98	
2215	0	60617	29982	98	
2216	0	60614	29978	98	
2217	0	60618	29985	98	
2218	0	60616	29981	98	
2219	0	60615	29979	98	
2220	0	60618	29982	98	
2221	0	60618	29984	98	
2222	0	60618	29982	98	
2223	0	60616	29985	98	
2224	0	60617	29983	98	
2225	0	60621	29986	98	
2226	0	60623	29984	98	
2227	0	60622	29986	98	
2228	0	60625	29991	98	
2229	0	60627	29990	98	
2230	0	60619	29989	98	
2231	0	60628	29994	98	
2232	0	60625	29990	98	
2233	0	60621	29990	98	
2234	0	60624	29997	98	
2235	0	60625	29990	98	
2236	0	60626	29996	98	
2237	0	60625	29994	98	
2238	0	60632	29992	98	
2239	0	60621	29994	98	
2240	0	60632	29994	98	
2241	0	60626	29997	98	
2242	0	60632	29999	98	
2243	0	60636	29998	98	
2244	0	60640	29999	98	
2245	0	60636	30001	98	
2246	0	60638	30000	98	
2247	0	60637	29998	98	
2248	0	60628	29998	98	
2249	0	60633	29998	98	
2250	0	60625	29992	98	
2251	0	60616	29993	98	
2252	0	60613	29984	98	
2253	0	60609	29985	98	
2254	0	60610	29980	98	
2255	0	60606	29979	98	
2256	0	60607	29975	98	
2257	0	60603	29971	98	
2258	0	60604	29967	98	
2259	0	60600	29970	98	
2260	0	60593	29969	98	
2261	0	60603	29970	98	
2262	0	60594	29966	98	
2263	0	60604	29965	98	
2264	0	60600	29965	98	
2265	0	60594	29966	98	
2266	0	60596	29964	98	
2267	0	60599	29962	98	
2268	0	60599	29959	98	
2269	0	60592	29961	98	
2270	0	60594	29963	98	
2271	0	60597	29959	98	
2272	0	60602	29958	98	
2273	0	60595	29961	98	
2274	0	60600	29966	98	
2275	0	60605	29966	98	
2276	0	60601	29966	98	
2277	0	60597	29966	98	
2278	0	60606	29964	98	
2279	0	60605	29969	98	
2280	0	60606	29958	98	
2281	0	60599	29958	98	
2282	0	60607	29959	98	
2283	0	60604	29957	98	
2284	0	60601	29955	98	
2285	0	60603	29962	98	
2286	0	60609	29958	98	
2287	0	60599	29960	98	
2288	0	60605	29965	98	
2289	0	60609	29960	98	
2290	0	60600	29966	98	
2291	0	60604	29961	98	
2292	0	60612	29963	98	
2293	0	60609	29967	98	
2294	0	60608	29967	98	
2295	0	60608	29966	98	
2296	0	60608	29967	98	
2297	0	60611	29973	98	
2298	0	60615	29970	98	
2299	0	60604	29973	98	
2300	0	60605	29971	98	
2301	0	60608	29969	98	
2302	0	60612	29968	98	
2303	0	60611	29971	98	
2304	0	60614	29973	98	
2305	0	60616	29973	98	
2306	0	60617	29971	98	
2307	0	60617	29978	98	
2308	0	60619	29978	98	
2309	0	60613	29977	98	
2310	0	60622	29973	98	
2311	0	60616	29980	98	
2312	0	60618	29978	98	
2313	0	60615	29974	98	
2314	0	60623	29976	98	
2315	0	60616	29984	98	
2316	0	60621	29980	98	
2317	0	60623	29981	98	
2318	0	60621	29980	98	
2319	0	60620	29983	98	
2320	0	60619	29986	98	
2321	0	60625	29983	98	
2322	0	60616	29985	98	
2323	0	60623	29986	98	
2324	0	60626	29982	98	
2325	0	60628	29982	98	
2326	0	60621	29983	98	
2327	0	60629	29990	98	
2328	0	60630	29988	98	
2329	0	60623	29992	98	
2330	0	60623	29985	98	
2331	0	60626	29989	98	
2332	0	60634	29988	98	
2333	0	60635	29984	98	
2334	0	60628	29985	98	
2335	0	60633	29996	98	
2336	0	60636	29993	98	
2337	0	60633	29992	98	
2338	0	60624	29993	98	
2339	0	60639	29997	98	
2340	0	60635	30001	98	
2341	0	60634	30001	98	
2342	0	60633	29995	98	
2343	0	60635	29995	98	
2344	0	60636	29997	98	
2345	0	60634	30001	98	
2346	0	60635	30001	98	
2347	0	60633	29998	98	
2348	0	60635	29997	98	
2349	0	60637	29996	98	
2350	0	60629	29994	98	
2351	0	60623	29989	98	
2352	0	60619	29988	98	
2353	0	60614	29979	98	
2354	0	60606	29981	98	
2355	0	60608	29976	98	
2356	0	60603	29974	98	
2357	0	60606	29970	98	
2358	0	60602	29970	98	
2359	0	60602	29966	98	
2360	0	60601	29966	98	
2361	0	60613	29963	98	
2362	0	60605	29965	98	
2363	0	60612	29962	98	
2364	0	60610	29967	98	
2365	0	60606	29963	98	
2366	0	60605	29962	98	
2367	0	60598	29961	98	
2368	0	60602	29963	98	
2369	0	60599	29953	98	
2370	0	60598	29961	98	
2371	0	60603	29954	98	
2372	0	60602	29957	98	
2373	0	60603	29955	98	
2374	0	60606	29959	98	
2375	0	60600	29952	98	
2376	0	60604	29959	98	
2377	0	60601	29956	98	
2378	0	60603	29959	98	
2379	0	60606	29963	98	
2380	0	60611	29965	98	
2381	0	60604	29960	98	
2382	0	60600	29959	98	
2383	0	60606	29958	98	
2384	0	60595	29961	98	
2385	0	60610	29953	98	
2386	0	60604	29964	98	
2387	0	60600	29964	98	
2388	0	60603	29962	98	
2389	0	60606	29961	98	
2390	0	60600	29966	98	
2391	0	60603	29963	98	
2392	0	60602	29961	98	
2393	0	60615	29966	98	
2394	0	60604	29968	98	
2395	0	60614	29963	98	
2396	0	60606	29967	98	
2397	0	60613	29964	98	
2398	0	60608	29965	98	
2399	0	60616	29965	98	
2400	0	60616	29971	98	
2401	0	60615	29976	98	
2402	0	60613	29972	98	
2403	0	60617	29972	98	
2404	0	60613	29975	98	
2405	0	60619	29973	98	
2406	0	60619	29975	98	
2407	0	60616	29975	98	
2408	0	60623	29975	98	
2409	0	60618	29974	98	
2410	0	60619	29975	98	
2411	0	60617	29976	98	
2412	0	60622	29978	98	
2413	0	60618	29980	98	
2414	0	60622	29974	98	
2415	0	60622	29979	98	
2416	0	60623	29975	98	
2417	0	60618	29976	98	
2418	0	60627	29973	98	
2419	0	60629	29974	98	
2420	0	60626	29983	98	
2421	0	60623	29982	98	
2422	0	60623	29981	98	
2423	0	60619	29983	98	
2424	0	60631	29986	98	
2425	0	60621	29982	98	
2426	0	60623	29985	98	
2427	0	60624	29989	98	
2428	0	60627	29991	98	
2429	0	60635	29989	98	
2430	0	60632	29992	98	
2431	0	60629	29990	98	
2432	0	60635	29992	98	
2433	0	60637	29991	98	
2434	0	60633	29994	98	
2435	0	60629	29993	98	
2436	0	60626	29993	98	
2437	0	60628	29996	98	
2438	0	60642	29997	98	
2439	0	60639	29995	98	
2440	0	60641	29996	98	
2441	0	60636	29999	98	
2442	0	60643	30004	98	
2443	0	60633	29998	98	
2444	0	60638	30001	98	
2445	0	60638	30001	98	
2446	0	60646	30004	98	
2447	0	60632	30002	98	
2448	0	60643	30000	98	
2449	0	60635	29993	98	
2450	0	60635	29990	98	
2451	0	60620	29989	98	
2452	0	60614	29985	98	
2453	0	60616	29986	98	
2454	0	60608	29981	98	
2455	0	60614	29975	98	
2456	0	60610	29980	98	
2457	0	60602	29971	98	
2458	0	60602	29979	98	
2459	0	60606	29972	98	
2460	0	60607	29973	98	
2461	0	60610	29971	98	
2462	0	60609	29972	98	
2463	0	60603	29969	98	
2464	0	60609	29969	98	
2465	0	60601	29974	98	
2466	0	60599	29968	98	
2467	0	60604	29964	98	
2468	0	60605	29961	98	
2469	0	60611	29961	98	
2470	0	60607	29964	98	
2471	0	60604	29960	98	
2472	0	60602	29962	98	
2473	0	60607	29960	98	
2474	0	60602	29967	98	
2475	0	60608	29965	98	
2476	0	60597	29967	98	
2477	0	60612	29959	98	
2478	0	60609	29965	98	
2479	0	60614	29962	98	
2480	0	60608	29970	98	
2481	0	60615	29962	98	
2482	0	60601	29968	98	
2483	0	60612	29965	98	
2484	0	60606	29969	98	
2485	0	60614	29962	98	
2486	0	60599	29966	98	
2487	0	60613	29964	98	
2488	0	60610	29965	98	
2489	0	60611	29968	98	
2490	0	60612	29969	98	
2491	0	60609	29964	98	
2492	0	60605	29963	98	
2493	0	60610	29970	98	
2494	0	60605	29972	98	
2495	0	60608	29971	98	
2496	0	60607	29970	98	
2497	0	60610	29970	98	
2498	0	60615	29972	98	
2499	0	60614	29968	98	
2500	0	60619	29971	98	
2501	0	60612	29970	98	
2502	0	60618	29977	98	
2503	0	60621	29972	98	
2504	0	60612	29975	98	
2505	0	60621	29974	98	
2506	0	60612	29979	98	
2507	0	60616	29981	98	
2508	0	60620	29981	98	
2509	0	60615	29985	98	
2510	0	60622	29983	98	
2511	0	60622	29978	98	
2512	0	60611	29978	98	
2513	0	60626	29982	98	
2514	0	60620	29982	98	
2515	0	60616	29983	98	
2516	0	60618	29981	98	
2517	0	60621	29984	98	
2518	0	60620	29985	98	
2519	0	60628	29991	98	
2520	0	60632	29984	98	
2521	0	60623	29986	98	
2522	0	60628	29985	98	
2523	0	60632	29985	98	
2524	0	60634	29988	98	
2525	0	60634	29992	98	
2526	0	60630	29985	98	
2527	0	60635	29990	98	
2528	0	60629	29989	98	
2529	0	60625	29989	98	
2530	0	60638	29991	98	
2531	0	60637	29993	98	
2532	0	60634	29988	98	
2533	0	60642	29990	98	
2534	0	60634	29988	98	
2535	0	60632	29993	98	
2536	0	60634	29995	98	
2537	0	60639	29992	98	
2538	0	60632	29994	98	
2539	0	60637	29993	98	
2540	0	60641	29993	98	
2541	0	60639	29990	98	
2542	0	60633	29991	98	
2543	0	60633	29991	98	
2544	0	60626	29981	98	
2545	0	60623	29980	98	
2546	0	60615	29971	98	
2547	0	60616	29974	98	
2548	0	60610	29965	98	
2549	0	60606	29971	98	
2550	0	60607	29965	98	
2551	0	60598	29968	98	
2552	0	60605	29962	98	
2553	0	60600	29966	98	
2554	0	60604	29959	98	
2555	0	60600	29965	98	
2556	0	60597	29962	98	
2557	0	60605	29968	98	
2558	0	60604	29961	98	
2559	0	60602	29965	98	
2560	0	60605	29961	98	
2561	0	60601	29959	98	
2562	0	60601	29952	98	
2563	0	60594	29964	98	
2564	0	60603	29958	98	
2565	0	60603	29968	98	
2566	0	60601	29956	98	
2567	0	60603	29958	98	
2568	0	60595	29962	98	
2569	0	60603	29961	98	
2570	0	60598	29959	98	
2571	0	60595	29959	98	
2572	0	60597	29955	98	
2573	0	60605	29966	98	
2574	0	60599	29957	98	
2575	0	60601	29965	98	
2576	0	60601	29954	98	
2577	0	60597	29958	98	
2578	0	60599	29958	98	
2579	0	60598	29959	98	
2580	0	60599	29956	98	
2581	0	60602	29964	98	
2582	0	60604	29956	98	
2583	0	60605	29963	98	
2584	0	60602	29956	98	
2585	0	60614	29959	98	
2586	0	60611	29959	98	
2587	0	60601	29964	98	
2588	0	60604	29960	98	
2589	0	60609	29969	98	
2590	0	60605	29968	98	
2591	0	60613	29973	98	
2592	0	60610	29967	98	
2593	0	60605	29976	98	
2594	0	60618	29969	98	
2595	0	60612	29974	98	
2596	0	60607	29973	98	
2597	0	60614	29975	98	
2598	0	60600	29974	98	
2599	0	60614	29972	98	
2600	0	60610	29974	98	
2601	0	60616	29976	98	
2602	0	60614	29973	98	
2603	0	60618	29971	98	
2604	0	60615	29973	98	
2605	0	60615	29971	98	
2606	0	60609	29971	98	
2607	0	60622	29975	98	
2608	0	60619	29968	98	
2609	0	60612	29978	98	
2610	0	60622	29972	98	
2611	0	60623	29973	98	
2612	0	60627	29973	98	
2613	0	60620	29977	98	
2614	0	60621	29974	98	
2615	0	60623	29976	98	
2616	0	60622	29975	98	
2617	0	60634	29979	98	
2618	0	60630	29977	98	
2619	0	60618	29983	98	
2620	0	60630	29982	98	
2621	0	60624	29983	98	
2622	0	60621	29977	98	
2623	0	60628	29982	98	
2624	0	60630	29982	98	
2625	0	60632	29990	98	
2626	0	60631	29991	98	
2627	0	60629	29995	98	
2628	0	60631	29987	98	
2629	0	60632	29989	98	
2630	0	60626	29989	98	
2631	0	60638	29994	98	
2632	0	60631	29989	98	
2633	0	60640	29994	98	
2634	0	60633	29990	98	
2635	0	60634	29995	98	
2636	0	60637	29994	98	
2637	0	60638	29998	98	
2638	0	60635	29991	98	
2639	0	60630	29991	98	
2640	0	60621	29986	98	
2641	0	60619	29989	98	
2642	0	60621	29983	98	
2643	0	60616	29982	98	
2644	0	60607	29971	98	
2645	0	60611	29972	98	
2646	0	60606	29966	98	
2647	0	60596	29964	98	
2648	0	60601	29960	98	
2649	0	60599	29959	98	
2650	0	60602	29961	98	
2651	0	60602	29960	98	
2652	0	60596	29960	98	
2653	0	60600	29955	98	
2654	0	60599	29959	98	
2655	0	60600	29956	98	
2656	0	60601	29956	98	
2657	0	60592	29959	98	
2658	0	60599	29954	98	
2659	0	60592	29952	98	
2660	0	60591	29950	98	
2661	0	60593	29948	98	
2662	0	60591	29946	98	
2663	0	60600	29950	98	
2664	0	60601	29948	98	
2665	0	60599	29952	98	
2666	0	60589	29948	98	
2667	0	60589	29954	98	
2668	0	60601	29948	98	
2669	0	60589	29953	98	
2670	0	60591	29951	98	
2671	0	60596	29949	98	
2672	0	60592	29951	98	
2673	0	60595	29954	98	
2674	0	60601	29950	98	
2675	0	60589	29947	98	
2676	0	60596	29952	98	
2677	0	60604	29954	98	
2678	0	60601	29953	98	
2679	0	60598	29956	98	
2680	0	60592	29954	98	
2681	0	60599	29959	98	
2682	0	60592	29957	98	
2683	0	60604	29955	98	
2684	0	60599	29955	98	
2685	0	60606	29958	97	
2686	0	60596	29959	97	
2687	0	60600	29956	97	
2688	0	60606	29961	97	
2689	0	60600	29955	97	
2690	0	60611	29959	97	
2691	0	60613	29960	97	
2692	0	60611	29963	97	
2693	0	60601	29963	97	
2694	0	60596	29966	97	
2695	0	60611	29964	97	
2696	0	60612	29965	97	
2697	0	60613	29967	97	
2698	0	60605	29967	97	
2699	0	60614	29966	97	
2700	0	60613	29974	97	
2701	0	60612	29971	97	
2702	0	60617	29973	97	
2703	0	60616	29969	97	
2704	0	60615	29973	97	
2705	0	60619	29966	97	
2706	0	60619	29974	97	
2707	0	60621	29969	97	
2708	0	60613	29973	97	
2709	0	60616	29976	97	
2710	0	60619	29970	97	
2711	0	60620	29972	97	
2712	0	60619	29974	97	
2713	0	60614	29976	97	
2714	0	60624	29975	97	
2715	0	60617	29973	97	
2716	0	60626	29974	97	
2717	0	60619	29973	97	
2718	0	60619	29974	97	
2719	0	60627	29974	97	
2720	0	60628	29981	97	
2721	0	60617	29978	97	
2722	0	60628	29978	97	
2723	0	60622	29976	97	
2724	0	60621	29982	97	
2725	0	60636	29983	97	
2726	0	60631	29982	97	
2727	0	60631	29987	97	
2728	0	60625	29986	97	
2729	0	60624	29984	97	
2730	0	60634	29986	97	
2731	0	60625	29986	97	
2732	0	60630	29985	97	
2733	0	60628	29986	97	
2734	0	60629	29987	97	
2735	0	60625	29990	97	
2736	0	60632	29987	97	
2737	0	60624	29986	97	
2738	0	60621	29984	97	
2739	0	60616	29985	97	
2740	0	60613	29971	97	
2741	0	60606	29970	97	
2742	0	60615	29970	97	
2743	0	60602	29962	97	
2744	0	60591	29956	97	
2745	0	60606	29958	97	
2746	0	60589	29960	97	
2747	0	60606	29959	97	
2748	0	60595	29955	97	
2749	0	60594	29956	97	
2750	0	60593	29958	97	
2751	0	60602	29954	97	
2752	0	60591	29957	97	
2753	0	60594	29953	97	
2754	0	60599	29952	97	
2755	0	60600	29952	97	
2756	0	60590	29952	97	
2757	0	60593	29948	97	
2758	0	60595	29945	97	
2759	0	60589	29947	97	
2760	0	60586	29954	97	
2761	0	60597	29951	97	
2762	0	60592	29948	97	
2763	0	60591	29952	97	
2764	0	60595	29949	97	
2765	0	60585	29948	97	
2766	0	60591	29954	97	
2767	0	60587	29953	97	
2768	0	60595	29953	97	
2769	0	60591	29951	97	
2770	0	60600	29953	97	
2771	0	60601	29948	97	
2772	0	60598	29946	97	
2773	0	60595	29949	97	
2774	0	60590	29949	97	
2775	0	60595	29950	97	
2776	0	60599	29953	97	
2777	0	60593	29953	97	
2778	0	60596	29954	97	
2779	0	60595	29948	97	
2780	0	60594	29952	97	
2781	0	60601	29954	97	
2782	0	60596	29956	97	
2783	0	60607	29952	97	
2784	0	60602	29958	97	
2785	0	60602	29959	97	
2786	0	60602	29957	97	
2787	0	60609	29962	97	
2788	0	60602	29961	97	
2789	0	60607	29961	97	
2790	0	60603	29956	97	
2791	0	60602	29959	97	
2792	0	60606	29960	97	
2793	0	60606	29961	97	
2794	0	60610	29963	97	
2795	0	60608	29959	97	
2796	0	60612	29961	97	
2797	0	60603	29963	97	
2798	0	60612	29962	97	
2799	0	60609	29965	97	
2800	0	60616	29967	97	
2801	0	60606	29969	97	
2802	0	60605	29968	97	
2803	0	60615	29967	97	
2804	0	60614	29969	97	
2805	0	60611	29969	97	
2806	0	60610	29969	97	
2807	0	60613	29973	97	
2808	0	60607	29972	97	
2809	0	60614	29974	97	
2810	0	60615	29974	97	
2811	0	60623	29975	97	
2812	0	60621	29969	97	
2813	0	60623	29975	97	
2814	0	60620	29981	97	
2815	0	60614	29980	97	
2816	0	60620	29982	97	
2817	0	60621	29984	97	
2818	0	60617	29983	97	
2819	0	60619	29987	97	
2820	0	60624	29984	97	
2821	0	60621	29983	97	
2822	0	60624	29981	97	
2823	0	60627	29985	97	
2824	0	60628	29982	97	
2825	0	60627	29984	97	
2826	0	60622	29984	97	
2827	0	60628	29984	97	
2828	0	60633	29988	97	
2829	0	60634	29991	97	
2830	0	60627	29991	97	
2831	0	60631	29989	97	
2832	0	60627	29985	97	
2833	0	60636	29990	97	
2834	0	60627	29984	97	
2835	0	60621	29990	97	
2836	0	60614	29982	97	
2837	0	60613	29979	97	
2838	0	60602	29973	97	
2839	0	60597	29972	97	
2840	0	60601	29966	97	
2841	0	60602	29966	97	
2842	0	60598	29961	97	
2843	0	60589	29963	97	
2844	0	60586	29955	97	
2845	0	60584	29956	97	
2846	0	60599	29953	97	
2847	0	60586	29948	97	
2848	0	60586	29955	97	
2849	0	60595	29951	97	
2850	0	60589	29953	97	
2851	0	60589	29948	97	
2852	0	60597	29948	97	
2853	0	60592	29942	97	
2854	0	60590	29948	97	
2855	0	60593	29947	97	
2856	0	60589	29947	97	
2857	0	60589	29947	97	
2858	0	60590	29944	97	
2859	0	60592	29948	97	
2860	0	60590	29948	97	
2861	0	60585	29943	97	
2862	0	60594	29942	97	
2863	0	60588	29943	97	
2864	0	60584	29946	97	
2865	0	60589	29944	97	
2866	0	60588	29947	97	
2867	0	60584	29946	97	
2868	0	60590	29949	97	
2869	0	60592	29944	97	
2870	0	60583	29942	97	
2871	0	60592	29948	97	
2872	0	60590	29945	97	
2873	0	60595	29947	97	
2874	0	60589	29945	97	
2875	0	60586	29951	97	
2876	0	60593	29949	97	
2877	0	60593	29949	97	
2878	0	60587	29949	97	
2879	0	60588	29955	97	
2880	0	60598	29957	97	
2881	0	60602	29951	97	
2882	0	60598	29952	97	
2883	0	60600	29958	97	
2884	0	60593	29959	97	
2885	0	60596	29957	97	
2886	0	60595	29954	97	
2887	0	60601	29958	97	
2888	0	60594	29958	97	
2889	0	60596	29958	97	
2890	0	60600	29962	97	
2891	0	60603	29960	97	
2892	0	60596	29963	97	
2893	0	60596	29967	97	
2894	0	60605	29964	97	
2895	0	60605	29965	97	
2896	0	60601	29963	97	
2897	0	60611	29969	97	
2898	0	60603	29964	97	
2899	0	60602	29965	97	
2900	0	60603	29968	97	
2901	0	60594	29971	97	
2902	0	60611	29971	97	
2903	0	60608	29969	97	
2904	0	60606	29972	97	
2905	0	60608	29973	97	
2906	0	60611	29972	97	
2907	0	60609	29975	97	
2908	0	60614	29976	97	
2909	0	60615	29977	97	
2910	0	60615	29973	97	
2911	0	60619	29975	97	
2912	0	60618	29975	97	
2913	0	60611	29977	97	
2914	0	60610	29974	97	
2915	0	60619	29981	97	
2916	0	60616	29983	97	
2917	0	60617	29986	97	
2918	0	60618	29977	97	
2919	0	60625	29981	97	
2920	0	60620	29978	97	
2921	0	60615	29986	97	
2922	0	60623	29983	97	
2923	0	60615	29983	97	
2924	0	60626	29985	97	
2925	0	60606	29984	97	
2926	0	60624	29986	97	
2927	0	60629	29988	97	
2928	0	60627	29988	97	
2929	0	60621	29991	97	
2930	0	60626	29990	97	
2931	0	60618	29996	97	
2932	0	60622	29989	97	
2933	0	60616	29982	97	
2934	0	60616	29975	97	
2935	0	60603	29976	97	
2936	0	60604	29971	97	
2937	0	60601	29965	97	
2938	0	60587	29961	97	
2939	0	60591	29956	97	
2940	0	60590	29959	97	
2941	0	60582	29961	97	
2942	0	60583	29956	97	
2943	0	60584	29951	97	
2944	0	60586	29957	97	
2945	0	60591	29952	97	
2946	0	60584	29948	97	
2947	0	60584	29950	97	
2948	0	60576	29944	97	
2949	0	60583	29944	97	
2950	0	60576	29945	97	
2951	0	60579	29939	97	
2952	0	60574	29943	97	
2953	0	60570	29937	97	
2954	0	60567	29940	97	
2955	0	60578	29936	97	
2956	0	60571	29933	97	
2957	0	60575	29935	97	
2958	0	60574	29939	97	
2959	0	60572	29935	97	
2960	0	60572	29935	97	
2961	0	60575	29934	97	
2962	0	60580	29934	97	
2963	0	60582	29939	97	
2964	0	60577	29937	97	
2965	0	60574	29936	97	
2966	0	60574	29935	97	
2967	0	60576	29933	97	
2968	0	60574	29938	97	
2969	0	60583	29934	97	
2970	0	60579	29934	97	
2971	0	60583	29935	97	
2972	0	60575	29935	97	
2973	0	60578	29933	97	
2974	0	60579	29938	97	
2975	0	60586	29940	97	
2976	0	60582	29946	97	
2977	0	60587	29941	97	
2978	0	60588	29945	97	
2979	0	60586	29938	97	
2980	0	60584	29938	97	
2981	0	60592	29940	97	
2982	0	60587	29938	97	
2983	0	60588	29941	97	
2984	0	60582	29945	97	
2985	0	60588	29944	98	
2986	0	60584	29951	98	
2987	0	60589	29956	98	
2988	0	60591	29948	98	
2989	0	60590	29946	98	
2990	0	60602	29951	98	
2991	0	60602	29952	98	
2992	0	60599	29956	98	
2993	0	60592	29949	98	
2994	0	60595	29956	98	
2995	0	60597	29955	98	
2996	0	60606	29956	98	
2997	0	60600	29961	98	
2998	0	60598	29958	98	
2999	0	60605	29962	98	
3000	0	60601	29964	98	
3001	0	60602	29960	98	
3002	0	60599	29962	98	
3003	0	60604	29968	98	
3004	0	60602	29965	98	
3005	0	60609	29965	98	
3006	0	60606	29968	98	
3007	0	60608	29966	98	
3008	0	60612	29969	98	
3009	0	60599	29966	98	
3010	0	60611	29972	98	
3011	0	60614	29967	98	
3012	0	60602	29968	98	
3013	0	60605	29968	98	
3014	0	60611	29968	98	
3015	0	60615	29971	98	
3016	0	60616	29975	98	
3017	0	60612	29975	98	
3018	0	60611	29974	98	
3019	0	60612	29972	98	
3020	0	60610	29967	98	
3021	0	60621	29972	98	
3022	0	60616	29981	98	
3023	0	60625	29981	98	
3024	0	60622	29982	98	
3025	0	60621	29979	98	
3026	0	60623	29983	98	
3027	0	60621	29982	98	
3028	0	60621	29980	98	
3029	0	60624	29980	98	
3030	0	60626	29978	98	
3031	0	60618	29979	98	
3032	0	60615	29975	98	
3033	0	60614	29973	98	
3034	0	60609	29971	98	
3035	0	60608	29966	98	
3036	0	60596	29963	98	
3037	0	60591	29955	98	
3038	0	60595	29950	98	
3039	0	60589	29950	98	
3040	0	60588	29949	98	
3041	0	60587	29949	98	
3042	0	60585	29947	98	
3043	0	60579	29943	98	
3044	0	60577	29939	98	
3045	0	60584	29940	98	
3046	0	60574	29942	98	
3047	0	60581	29937	98	
3048	0	60580	29937	98	
3049	0	60571	29937	98	
3050	0	60578	29930	98	
3051	0	60569	29933	98	
3052	0	60574	29934	98	
3053	0	60570	29934	98	
3054	0	60577	29935	98	
3055	0	60571	29932	98	
3056	0	60566	29934	98	
3057	0	60577	29934	98	
3058	0	60576	29933	98	
3059	0	60572	29931	98	
3060	0	60567	29932	98	
3061	0	60571	29935	98	
3062	0	60572	29940	98	
3063	0	60570	29938	98	
3064	0	60579	29941	98	
3065	0	60568	29938	98	
3066	0	60578	29937	98	
3067	0	60577	29936	98	
3068	0	60580	29935	98	
3069	0	60572	29934	98	
3070	0	60578	29937	98	
3071	0	60573	29937	98	
3072	0	60581	29939	98	
3073	0	60580	29935	98	
3074	0	60578	29936	98	
3075	0	60575	29941	98	
3076	0	60581	29938	98	
3077	0	60577	29935	98	
3078	0	60583	29944	98	
3079	0	60578	29940	98	
3080	0	60590	29943	98	
3081	0	60585	29941	98	
3082	0	60577	29943	98	
3083	0	60584	29945	98	
3084	0	60580	29942	98	
3085	0	60588	29940	98	
3086	0	60595	29944	98	
3087	0	60593	29947	98	
3088	0	60587	29946	98	
3089	0	60590	29944	98	
3090	0	60587	29949	98	
3091	0	60598	29948	98	
3092	0	60593	29946	98	
3093	0	60591	29953	98	
3094	0	60597	29951	98	
3095	0	60596	29954	98	
3096	0	60590	29955	98	
3097	0	60594	29958	98	
3098	0	60596	29956	98	
3099	0	60600	29959	98	
3100	0	60591	29958	98	
3101	0	60596	29958	98	
3102	0	60601	29962	98	
3103	0	60605	29961	98	
3104	0	60602	29965	98	
3105	0	60602	29962	98	
3106	0	60606	29962	98	
3107	0	60608	29959	98	
3108	0	60605	29960	98	
3109	0	60605	29967	98	
3110	0	60596	29963	98	
3111	0	60609	29962	98	
3112	0	60607	29969	98	
3113	0	60603	29967	98	
3114	0	60595	29966	98	
3115	0	60607	29966	98	
3116	0	60607	29966	98	
3117	0	60606	29969	98	
3118	0	60608	29976	98	
3119	0	60611	29973	98	
3120	0	60616	29968	98	
3121	0	60609	29974	98	
3122	0	60613	29975	98	
3123	0	60616	29975	98	
3124	0	60607	29978	98	
3125	0	60618	29975	98	
3126	0	60613	29977	98	
3127	0	60609	29977	98	
3128	0	60621	29973	98	
3129	0	60613	29978	98	
3130	0	60611	29975	98	
3131	0	60616	29979	98	
3132	0	60615	29977	98	
3133	0	60607	29977	98	
3134	0	60609	29971	98	
3135	0	60600	29968	98	
3136	0	60598	29967	98	
3137	0	60591	29959	98	
3138	0	60588	29960	98	
3139	0	60586	29950	98	
3140	0	60583	29952	98	
3141	0	60586	29945	98	
3142	0	60580	29941	98	
3143	0	60573	29949	98	
3144	0	60582	29946	98	
3145	0	60573	29942	98	
3146	0	60574	29937	98	
3147	0	60568	29939	98	
3148	0	60570	29938	98	
3149	0	60580	29938	98	
3150	0	60564	29938	98	
3151	0	60567	29938	98	
3152	0	60569	29931	98	
3153	0	60566	29930	98	
3154	0	60564	29928	98	
3155	0	60562	29930	98	
3156	0	60560	29929	98	
3157	0	60564	29931	98	
3158	0	60570	29929	98	
3159	0	60565	29933	98	
3160	0	60561	29926	98	
3161	0	60571	29930	98	
3162	0	60567	29926	98	
3163	0	60564	29934	98	
3164	0	60571	29929	98	
3165	0	60563	29929	98	
3166	0	60572	29925	98	
3167	0	60573	29930	98	
3168	0	60563	29925	98	
3169	0	60571	29928	98	
3170	0	60572	29927	98	
3171	0	60575	29930	98	
3172	0	60569	29927	98	
3173	0	60573	29932	98	
3174	0	60569	29933	98	
3175	0	60572	29934	98	
3176	0	60576	29936	98	
3177	0	60578	29933	98	
3178	0	60578	29934	98	
3179	0	60580	29940	98	
3180	0	60579	29932	98	
3181	0	60584	29935	98	
3182	0	60584	29936	98	
3183	0	60582	29938	98	
3184	0	60590	29940	98	
3185	0	60584	29942	98	
3186	0	60584	29939	98	
3187	0	60582	29940	98	
3188	0	60583	29944	98	
3189	0	60586	29945	98	
3190	0	60593	29947	98	
3191	0	60583	29950	98	
3192	0	60588	29948	98	
3193	0	60584	29949	98	
3194	0	60590	29946	98	
3195	0	60595	29953	98	
3196	0	60590	29947	98	
3197	0	60592	29954	98	
3198	0	60593	29952	98	
3199	0	60594	29952	98	
3200	0	60592	29952	98	
3201	0	60596	29953	98	
3202	0	60594	29959	98	
3203	0	60592	29956	98	
3204	0	60597	29956	98	
3205	0	60601	29959	98	
3206	0	60600	29955	98	
3207	0	60602	29961	98	
3208	0	60607	29956	98	
3209	0	60605	29957	98	
3210	0	60603	29960	98	
3211	0	60608	29966	98	
3212	0	60604	29965	98	
3213	0	60604	29964	98	
3214	0	60609	29967	98	
3215	0	60601	29967	98	
3216	0	60601	29962	98	
3217	0	60613	29966	98	
3218	0	60605	29966	98	
3219	0	60608	29971	98	
3220	0	60612	29968	98	
3221	0	60608	29977	98	
3222	0	60608	29975	98	
3223	0	60611	29973	98	
3224	0	60610	29975	98	
3225	0	60614	29974	98	
3226	0	60615	29977	98	
3227	0	60613	29986	98	
3228	0	60615	29978	98	
3229	0	60616	29983	98	
3230	0	60612	29978	98	
3231	0	60614	29979	98	
3232	0	60614	29970	98	
3233	0	60613	29973	98	
3234	0	60600	29967	98	
3235	0	60601	29964	98	
3236	0	60598	29962	98	
3237	0	60598	29959	98	
3238	0	60580	29953	98	
3239	0	60577	29945	98	
3240	0	60572	29941	98	
3241	0	60583	29946	98	
3242	0	60569	29940	98	
3243	0	60571	29940	98	
3244	0	60573	29938	98	
3245	0	60567	29936	98	
3246	0	60571	29930	98	
3247	0	60567	29932	98	
3248	0	60567	29929	98	
3249	0	60562	29930	98	
3250	0	60567	29925	98	
3251	0	60569	29931	98	
3252	0	60565	29924	98	
3253	0	60569	29924	98	
3254	0	60563	29918	98	
3255	0	60557	29918	98	
3256	0	60556	29918	98	
3257	0	60555	29916	98	
3258	0	60561	29912	98	
3259	0	60554	29916	98	
3260	0	60560	29919	98	
3261	0	60557	29920	98	
3262	0	60561	29921	98	
3263	0	60562	29926	98	
3264	0	60563	29927	98	
3265	0	60563	29925	98	
3266	0	60562	29921	98	
3267	0	60567	29919	98	
3268	0	60556	29925	98	
3269	0	60559	29921	98	
3270	0	60560	29919	98	
3271	0	60571	29923	98	
3272	0	60562	29923	98	
3273	0	60571	29926	98	
3274	0	60567	29923	98	
3275	0	60568	29925	98	
3276	0	60572	29928	98	
3277	0	60566	29928	98	
3278	0	60569	29922	98	
3279	0	60574	29925	98	
3280	0	60571	29925	98	
3281	0	60580	29927	98	
3282	0	60579	29933	98	
3283	0	60582	29934	98	
3284	0	60572	29933	98	
3285	0	60575	29936	98	
3286	0	60572	29932	98	
3287	0	60583	29938	98	
3288	0	60580	29940	98	
3289	0	60586	29939	98	
3290	0	60590	29941	98	
3291	0	60590	29940	98	
3292	0	60576	29940	98	
3293	0	60582	29940	98	
3294	0	60587	29938	98	
3295	0	60589	29939	98	
3296	0	60586	29939	98	
3297	0	60591	29937	98	
3298	0	60593	29940	98	
3299	0	60583	29942	98	
3300	0	60594	29939	98	
3301	0	60593	29947	98	
3302	0	60594	29947	98	
3303	0	60590	29947	98	
3304	0	60595	29945	98	
3305	0	60597	29949	98	
3306	0	60589	29948	98	
3307	0	60589	29946	98	
3308	0	60594	29952	98	
3309	0	60596	29950	98	
3310	0	60598	29952	98	
3311	0	60599	29950	98	
3312	0	60597	29954	98	
3313	0	60599	29950	98	
3314	0	60597	29955	98	
3315	0	60606	29958	98	
3316	0	60606	29957	98	
3317	0	60599	29959	98	
3318	0	60604	29956	98	
3319	0	60604	29960	98	
3320	0	60605	29960	98	
3321	0	60608	29961	98	
3322	0	60605	29957	98	
3323	0	60603	29958	98	
3324	0	60609	29963	98	
3325	0	60611	29963	98	
3326	0	60614	29959	98	
3327	0	60606	29966	98	
3328	0	60603	29960	98	
3329	0	60613	29960	98	
3330	0	60616	29966	98	
3331	0	60616	29968	98	
3332	0	60610	29964	98	
3333	0	60609	29967	98	
3334	0	60615	29966	98	
3335	0	60606	29969	98	
3336	0	60601	29960	98	
3337	0	60607	29959	98	
3338	0	60598	29954	98	
3339	0	60590	29949	98	
3340	0	60587	29944	98	
3341	0	60588	29940	98	
3342	0	60579	29937	98	
3343	0	60579	29934	98	
3344	0	60569	29933	98	
3345	0	60567	29930	98	
3346	0	60575	29931	98	
3347	0	60568	29924	98	
3348	0	60573	29932	98	
3349	0	60566	29927	98	
3350	0	60571	29929	98	
3351	0	60570	29926	98	
3352	0	60565	29924	98	
3353	0	60562	29919	98	
3354	0	60562	29911	98	
3355	0	60567	29919	98	
3356	0	60561	29913	98	
3357	0	60555	29911	98	
3358	0	60556	29911	98	
3359	0	60553	29913	98	
3360	0	60559	29910	98	
3361	0	60558	29916	98	
3362	0	60559	29910	98	
3363	0	60557	29912	98	
3364	0	60555	29911	98	
3365	0	60557	29914	98	
3366	0	60562	29915	98	
3367	0	60569	29909	98	
3368	0	60558	29913	98	
3369	0	60557	29913	98	
3370	0	60561	29913	98	
3371	0	60556	29913	98	
3372	0	60565	29911	98	
3373	0	60564	29915	98	
3374	0	60567	29919	98	
3375	0	60557	29916	98	
3376	0	60563	29920	98	
3377	0	60560	29916	98	
3378	0	60565	29920	98	
3379	0	60571	29920	98	
3380	0	60563	29918	98	
3381	0	60563	29921	98	
3382	0	60570	29919	98	
3383	0	60573	29916	98	
3384	0	60573	29915	98	
3385	0	60572	29918	98	
3386	0	60578	29923	98	
3387	0	60582	29923	98	
3388	0	60570	29920	98	
3389	0	60578	29924	98	
3390	0	60572	29927	98	
3391	0	60574	29931	98	
3392	0	60580	29930	98	
3393	0	60583	29935	98	
3394	0	60576	29937	98	
3395	0	60576	29937	98	
3396	0	60591	29933	98	
3397	0	60590	29929	98	
3398	0	60578	29932	98	
3399	0	60591	29940	98	
3400	0	60592	29934	98	
3401	0	60588	29933	98	
3402	0	60587	29937	98	
3403	0	60585	29941	98	
3404	0	60590	29939	98	
3405	0	60588	29939	98	
3406	0	60584	29939	98	
3407	0	60589	29940	98	
3408	0	60590	29943	98	
3409	0	60585	29941	98	
3410	0	60596	29946	98	
3411	0	60596	29943	98	
3412	0	60587	29945	98	
3413	0	60597	29946	98	
3414	0	60600	29950	98	
3415	0	60591	29947	98	
3416	0	60604	29948	98	
3417	0	60609	29954	98	
3418	0	60609	29953	98	
3419	0	60604	29956	98	
3420	0	60607	29952	98	
3421	0	60607	29958	98	
3422	0	60606	29955	98	
3423	0	60601	29958	98	
3424	0	60598	29963	98	
3425	0	60608	29961	98	
3426	0	60613	29960	98	
3427	0	60612	29962	98	
3428	0	60610	29964	98	
3429	0	60611	29962	98	
3430	0	60608	29961	98	
3431	0	60607	29963	98	
3432	0	60619	29967	98	
3433	0	60617	29969	98	
3434	0	60614	29964	98	
3435	0	60616	29967	98	
3436	0	60616	29973	98	
3437	0	60614	29969	98	
3438	0	60619	29965	98	
3439	0	60617	29970	98	
3440	0	60609	29966	98	
3441	0	60610	29963	98	
3442	0	60600	29961	98	
3443	0	60597	29956	98	
3444	0	60596	29945	98	
3445	0	60590	29940	98	
3446	0	60583	29942	98	
3447	0	60579	29934	98	
3448	0	60578	29937	98	
3449	0	60583	29933	98	
3450	0	60577	29931	98	
3451	0	60573	29928	98	
3452	0	60572	29929	98	
3453	0	60572	29926	98	
3454	0	60563	29921	98	
3455	0	60574	29924	98	
3456	0	60567	29921	98	
3457	0	60565	29922	98	
3458	0	60562	29919	98	
3459	0	60569	29918	98	
3460	0	60563	29913	98	
3461	0	60562	29917	98	
3462	0	60561	29915	98	
3463	0	60561	29912	98	
3464	0	60565	29915	98	
3465	0	60563	29916	98	
3466	0	60566	29910	98	
3467	0	60567	29910	98	
3468	0	60567	29913	98	
3469	0	60572	29911	98	
3470	0	60564	29911	98	
3471	0	60563	29908	98	
3472	0	60565	29905	98	
3473	0	60563	29911	98	
3474	0	60564	29908	98	
3475	0	60565	29910	98	
3476	0	60566	29912	98	
3477	0	60573	29911	98	
3478	0	60575	29912	98	
3479	0	60573	29911	98	
3480	0	60571	29911	98	
3481	0	60565	29913	98	
3482	0	60573	29910	98	
3483	0	60569	29915	98	
3484	0	60570	29917	98	
3485	0	60576	29912	98	
3486	0	60571	29917	98	
3487	0	60577	29922	98	
3488	0	60585	29920	98	
3489	0	60584	29923	98	
3490	0	60586	29923	98	
3491	0	60584	29926	98	
3492	0	60578	29925	98	
3493	0	60580	29926	98	
3494	0	60585	29924	98	
3495	0	60584	29926	98	
3496	0	60585	29926	98	
3497	0	60583	29930	98	
3498	0	60581	29927	98	
3499	0	60598	29926	98	
3500	0	60582	29928	98	
3501	0	60583	29931	98	
3502	0	60592	29929	98	
3503	0	60587	29931	98	
3504	0	60588	29930	98	
3505	0	60589	29930	98	
3506	0	60590	29933	98	
3507	0	60587	29933	98	
3508	0	60594	29932	98	
3509	0	60590	29938	98	
3510	0	60591	29939	98	
3511	0	60596	29937	98	
3512	0	60594	29938	98	
3513	0	60603	29939	98	
3514	0	60605	29942	98	
3515	0	60604	29947	98	
3516	0	60602	29947	98	
3517	0	60605	29943	98	
3518	0	60604	29943	98	
3519	0	60596	29944	98	
3520	0	60602	29944	98	
3521	0	60603	29944	98	
3522	0	60610	29945	98	
3523	0	60605	29949	98	
3524	0	60606	29955	98	
3525	0	60607	29955	98	
3526	0	60607	29953	98	
3527	0	60606	29954	98	
3528	0	60615	29954	98	
3529	0	60612	29956	98	
3530	0	60613	29953	98	
3531	0	60618	29958	98	
3532	0	60617	29965	98	
3533	0	60618	29965	98	
3534	0	60617	29961	98	
3535	0	60616	29963	98	
3536	0	60628	29963	98	
3537	0	60620	29970	98	
3538	0	60623	29967	98	
3539	0	60627	29972	98	
3540	0	60624	29964	98	
3541	0	60622	29970	98	
3542	0	60622	29967	98	
3543	0	60629	29974	98	
3544	0	60629	29968	98	
3545	0	60627	29970	98	
3546	0	60615	29966	98	
3547	0	60613	29958	98	
3548	0	60611	29956	98	
3549	0	60606	29949	98	
3550	0	60595	29948	98	
3551	0	60593	29944	98	
3552	0	60595	29940	98	
3553	0	60593	29941	98	
3554	0	60586	29932	98	
3555	0	60592	29930	98	
3556	0	60587	29934	98	
3557	0	60586	29933	98	
3558	0	60590	29929	98	
3559	0	60577	29926	98	
3560	0	60578	29925	98	
3561	0	60585	29922	98	
3562	0	60575	29924	98	
3563	0	60582	29922	98	
3564	0	60578	29926	98	
3565	0	60584	29922	98	
3566	0	60574	29920	98	
3567	0	60583	29919	98	
3568	0	60575	29920	98	
3569	0	60582	29916	98	
3570	0	60583	29920	98	
3571	0	60585	29919	98	
3572	0	60578	29920	98	
3573	0	60581	29919	98	
3574	0	60579	29920	98	
3575	0	60585	29919	98	
3576	0	60581	29923	98	
3577	0	60589	29921	98	
3578	0	60585	29922	98	
3579	0	60583	29920	98	
3580	0	60580	29923	98	
3581	0	60579	29922	98	
3582	0	60583	29922	98	
3583	0	60582	29921	98	
3584	0	60581	29920	98	
3585	0	60590	29924	98	
3586	0	60586	29929	98	
3587	0	60591	29930	98	
3588	0	60590	29921	98	
3589	0	60588	29931	98	
3590	0	60591	29927	98	
3591	0	60586	29933	98	
3592	0	60589	29931	98	
3593	0	60596	29932	98	
3594	0	60595	29929	98	
3595	0	60604	29936	98	
3596	0	60595	29931	98	
3597	0	60598	29938	98	
3598	0	60600	29937	98	
3599	0	60600	29931	98	
3600	0	60596	29940	98	
3601	0	60605	29936	98	
3602	0	60603	29940	98	
3603	0	60598	29940	98	
3604	0	60600	29943	98	
3605	0	60602	29943	98	
3606	0	60601	29944	98	
3607	0	60606	29943	98	
3608	0	60612	29941	98	
3609	0	60608	29942	98	
3610	0	60607	29944	98	
3611	0	60603	29946	98	
3612	0	60610	29942	98	
3613	0	60612	29938	98	
3614	0	60616	29947	98	
3615	0	60616	29950	98	
3616	0	60620	29955	98	
3617	0	60620	29951	98	
3618	0	60612	29951	98	
3619	0	60617	29948	98	
3620	0	60611	29947	98	
3621	0	60613	29950	98	
3622	0	60616	29951	98	
3623	0	60619	29950	98	
3624	0	60617	29952	98	
3625	0	60622	29949	98	
3626	0	60620	29953	98	
3627	0	60630	29952	98	
3628	0	60618	29960	98	
3629	0	60629	29958	98	
3630	0	60621	29964	98	
3631	0	60632	29960	98	
3632	0	60632	29960	98	
3633	0	60635	29961	98	
3634	0	60625	29959	98	
3635	0	60624	29956	98	
3636	0	60633	29963	98	
3637	0	60627	29960	98	
3638	0	60628	29968	98	
3639	0	60629	29963	98	
3640	0	60638	29968	98	
3641	0	60641	29972	98	
3642	0	60634	29970	98	
3643	0	60643	29971	98	
3644	0	60641	29973	98	
3645	0	60636	29967	98	
3646	0	60640	29973	98	
3647	0	60645	29968	98	
3648	0	60635	29968	98	
3649	0	60635	29971	98	
3650	0	60632	29969	98	
3651	0	60620	29960	98	
3652	0	60615	29955	98	
3653	0	60621	29958	98	
3654	0	60613	29950	98	
3655	0	60608	29948	98	
3656	0	60600	29948	98	
3657	0	60608	29941	98	
3658	0	60600	29942	98	
3659	0	60605	29940	98	
3660	0	60605	29942	98	
3661	0	60602	29936	98	
3662	0	60591	29937	98	
3663	0	60602	29935	98	
3664	0	60603	29932	98	
3665	0	60603	29928	98	
3666	0	60602	29930	98	
3667	0	60593	29935	98	
3668	0	60596	29931	98	
3669	0	60592	29927	98	
3670	0	60599	29929	98	
3671	0	60598	29927	98	
3672	0	60597	29935	98	
3673	0	60594	29932	98	
3674	0	60591	29931	98	
3675	0	60595	29938	98	
3676	0	60596	29940	98	
3677	0	60603	29938	98	
3678	0	60596	29937	98	
3679	0	60595	29930	98	
3680	0	60598	29933	98	
3681	0	60595	29930	98	
3682	0	60596	29935	98	
3683	0	60605	29933	98	
3684	0	60591	29933	98	
3685	0	60605	29932	98	
3686	0	60603	29924	98	
3687	0	60599	29930	98	
3688	0	60593	29938	98	
3689	0	60606	29931	98	
3690	0	60598	29934	98	
3691	0	60599	29929	98	
3692	0	60602	29935	98	
3693	0	60610	29934	98	
3694	0	60614	29938	98	
3695	0	60612	29936	98	
3696	0	60609	29936	98	
3697	0	60613	29939	98	
3698	0	60615	29940	98	
3699	0	60614	29938	98	
3700	0	60618	29941	98	
3701	0	60610	29946	98	
3702	0	60620	29943	98	
3703	0	60613	29945	98	
3704	0	60620	29942	98	
3705	0	60614	29949	98	
3706	0	60618	29946	98	
3707	0	60616	29943	98	
3708	0	60616	29948	98	
3709	0	60624	29949	98	
3710	0	60618	29950	98	
3711	0	60623	29953	98	
3712	0	60617	29954	98	
3713	0	60622	29951	98	
3714	0	60627	29946	98	
3715	0	60628	29956	98	
3716	0	60630	29953	98	
3717	0	60621	29960	98	
3718	0	60628	29952	98	
3719	0	60634	29954	98	
3720	0	60627	29955	98	
3721	0	60634	29958	98	
3722	0	60630	29960	98	
3723	0	60627	29958	98	
3724	0	60631	29958	98	
3725	0	60640	29963	98	
3726	0	60630	29964	98	
3727	0	60628	29963	98	
3728	0	60627	29965	98	
3729	0	60637	29968	98	
3730	0	60640	29962	98	
3731	0	60630	29966	98	
3732	0	60638	29970	98	
3733	0	60630	29969	98	
3734	0	60635	29970	98	
3735	0	60638	29970	98	
3736	0	60638	29972	98	
3737	0	60647	29970	98	
3738	0	60645	29964	98	
3739	0	60647	29975	98	
3740	0	60643	29974	98	
3741	0	60647	29981	98	
3742	0	60639	29978	98	
3743	0	60639	29979	98	
3744	0	60644	29978	98	
3745	0	60654	29978	98	
3746	0	60641	29976	98	
3747	0	60652	29985	98	
3748	0	60652	29982	98	
3749	0	60659	29981	98	
3750	0	60644	29981	98	
3751	0	60646	29981	98	
3752	0	60647	29978	98	
3753	0	60640	29980	98	
3754	0	60634	29972	98	
3755	0	60633	29968	98	
3756	0	60621	29957	98	
3757	0	60620	29955	98	
3758	0	60615	29953	98	
3759	0	60613	29954	98	
3760	0	60618	29944	98	
3761	0	60607	29948	98	
3762	0	60617	29946	98	
3763	0	60615	29946	98	
3764	0	60610	29941	98	
3765	0	60610	29949	98	
3766	0	60607	29943	98	
3767	0	60612	29942	98	
3768	0	60603	29946	98	
3769	0	60608	29945	98	
3770	0	60606	29948	98	
3771	0	60613	29949	98	
3772	0	60608	29943	98	
3773	0	60614	29947	98	
3774	0	60610	29942	98	
3775	0	60608	29941	98	
3776	0	60606	29934	98	
3777	0	60618	29943	98	
3778	0	60604	29943	98	
3779	0	60610	29945	98	
3780	0	60616	29946	98	
3781	0	60613	29945	98	
3782	0	60611	29941	98	
3783	0	60611	29948	98	
3784	0	60616	29943	98	
3785	0	60610	29944	98	
3786	0	60609	29941	98	
3787	0	60618	29946	98	
3788	0	60621	29939	98	
3789	0	60616	29944	98	
3790	0	60616	29937	98	
3791	0	60614	29941	98	
3792	0	60621	29940	98	
3793	0	60616	29943	98	
3794	0	60622	29941	98	
3795	0	60620	29947	98	
3796	0	60610	29939	98	
3797	0	60626	29941	98	
3798	0	60611	29941	98	
3799	0	60621	29942	98	
3800	0	60616	29943	98	
3801	0	60616	29942	98	
3802	0	60627	29949	98	
3803	0	60634	29953	98	
3804	0	60618	29948	98	
3805	0	60634	29957	98	
3806	0	60633	29951	98	
3807	0	60624	29955	98	
3808	0	60624	29955	98	
3809	0	60625	29963	98	
3810	0	60625	29958	98	
3811	0	60626	29961	98	
3812	0	60628	29959	98	
3813	0	60631	29965	98	
3814	0	60631	29959	98	
3815	0	60629	29962	98	
3816	0	60631	29962	98	
3817	0	60633	29965	98	
3818	0	60631	29969	98	
3819	0	60640	29965	98	
3820	0	60632	29961	98	
3821	0	60634	29966	98	
3822	0	60639	29967	98	
3823	0	60642	29973	98	
3824	0	60642	29968	98	
3825	0	60639	29972	98	
3826	0	60633	29970	98	
3827	0	60638	29973	98	
3828	0	60646	29971	98	
3829	0	60639	29976	98	
3830	0	60637	29975	98	
3831	0	60641	29976	98	
3832	0	60648	29973	98	
3833	0	60636	29974	98	
3834	0	60641	29975	98	
3835	0	60640	29974	98	
3836	0	60648	29980	98	
3837	0	60656	29983	98	
3838	0	60654	29982	98	
3839	0	60646	29982	98	
3840	0	60650	29981	98	
3841	0	60655	29982	98	
3842	0	60654	29981	98	
3843	0	60649	29985	98	
3844	0	60655	29983	98	
3845	0	60656	29983	98	
3846	0	60650	29984	98	
3847	0	60657	29983	98	
3848	0	60655	29986	98	
3849	0	60658	29985	98	
3850	0	60646	29977	98	
3851	0	60652	29980	98	
3852	0	60636	29973	98	
3853	0	60629	29971	98	
3854	0	60636	29967	98	
3855	0	60634	29964	98	
3856	0	60620	29956	98	
3857	0	60625	29956	98	
3858	0	60622	29953	98	
3859	0	60616	29955	98	
3860	0	60611	29944	98	
3861	0	60613	29947	98	
3862	0	60620	29953	98	
3863	0	60617	29947	98	
3864	0	60620	29948	98	
3865	0	60614	29947	98	
3866	0	60622	29945	98	
3867	0	60619	29947	98	
3868	0	60619	29940	98	
3869	0	60609	29945	98	
3870	0	60619	29944	98	
3871	0	60621	29942	98	
3872	0	60612	29941	98	
3873	0	60611	29948	98	
3874	0	60607	29947	98	
3875	0	60616	29946	98	
3876	0	60613	29942	98	
3877	0	60619	29947	98	
3878	0	60615	29948	98	
3879	0	60615	29944	98	
3880	0	60620	29941	98	
3881	0	60616	29947	98	
3882	0	60623	29946	98	
3883	0	60619	29945	98	
3884	0	60611	29946	98	
3885	0	60622	29944	97	
3886	0	60613	29945	97	
3887	0	60619	29947	97	
3888	0	60615	29945	97	
3889	0	60622	29949	97	
3890	0	60612	29948	97	
3891	0	60622	29947	97	
3892	0	60619	29945	97	
3893	0	60618	29943	97	
3894	0	60619	29950	97	
3895	0	60622	29951	97	
3896	0	60621	29952	97	
3897	0	60625	29950	97	
3898	0	60628	29948	97	
3899	0	60629	29956	97	
3900	0	60629	29956	97	
3901	0	60627	29953	97	
3902	0	60621	29954	97	
3903	0	60625	29952	97	
3904	0	60627	29955	97	
3905	0	60631	29954	97	
3906	0	60635	29961	97	
3907	0	60638	29959	97	
3908	0	60640	29958	97	
3909	0	60642	29957	97	
3910	0	60632	29960	97	
3911	0	60637	29968	97	
3912	0	60636	29965	97	
3913	0	60632	29960	97	
3914	0	60636	29966	97	
3915	0	60633	29966	97	
3916	0	60643	29963	97	
3917	0	60635	29965	97	
3918	0	60646	29969	97	
3919	0	60639	29968	97	
3920	0	60643	29970	97	
3921	0	60641	29969	97	
3922	0	60644	29963	97	
3923	0	60638	29967	97	
3924	0	60645	29970	97	
3925	0	60637	29968	97	
3926	0	60646	29977	97	
3927	0	60653	29970	97	
3928	0	60643	29972	97	
3929	0	60643	29980	97	
3930	0	60654	29978	97	
3931	0	60645	29979	97	
3932	0	60650	29978	97	
3933	0	60642	29973	97	
3934	0	60646	29971	97	
3935	0	60647	29981	97	
3936	0	60650	29979	97	
3937	0	60645	29982	97	
3938	0	60651	29979	97	
3939	0	60653	29982	97	
3940	0	60655	29979	97	
3941	0	60648	29981	97	
3942	0	60649	29984	97	
3943	0	60655	29979	97	
3944	0	60648	29986	97	
3945	0	60650	29986	97	
3946	0	60654	29989	97	
3947	0	60648	29985	97	
3948	0	60640	29982	97	
3949	0	60642	29979	97	
3950	0	60629	29973	97	
3951	0	60630	29965	97	
3952	0	60628	29955	97	
3953	0	60615	29955	97	
3954	0	60610	29951	97	
3955	0	60620	29957	97	
3956	0	60608	29948	97	
3957	0	60614	29950	97	
3958	0	60617	29949	97	
3959	0	60617	29943	97	
3960	0	60611	29937	97	
3961	0	60613	29942	97	
3962	0	60607	29938	97	
3963	0	60609	29943	97	
3964	0	60606	29935	97	
3965	0	60608	29936	97	
3966	0	60609	29933	97	
3967	0	60601	29939	97	
3968	0	60600	29933	97	
3969	0	60601	29934	97	
3970	0	60600	29932	97	
3971	0	60610	29928	97	
3972	0	60606	29930	97	
3973	0	60611	29931	97	
3974	0	60601	29929	97	
3975	0	60604	29934	97	
3976	0	60597	29930	97	
3977	0	60601	29936	97	
3978	0	60605	29930	97	
3979	0	60610	29931	97	
3980	0	60609	29932	97	
3981	0	60602	29935	97	
3982	0	60612	29936	97	
3983	0	60600	29932	97	
3984	0	60603	29934	97	
3985	0	60600	29934	97	
3986	0	60608	29928	97	
3987	0	60603	29927	97	
3988	0	60613	29930	97	
3989	0	60607	29935	97	
3990	0	60605	29939	97	
3991	0	60608	29933	97	
3992	0	60610	29937	97	
3993	0	60610	29937	97	
3994	0	60609	29937	97	
3995	0	60609	29941	97	
3996	0	60613	29945	97	
3997	0	60616	29943	97	
3998	0	60622	29943	97	
3999	0	60615	29942	97	
4000	0	60623	29945	97	
4001	0	60616	29943	97	
4002	0	60619	29949	97	
4003	0	60625	29948	97	
4004	0	60626	29944	97	
4005	0	60619	29947	97	
4006	0	60629	29947	97	
4007	0	60629	29951	97	
4008	0	60622	29948	97	
4009	0	60619	29949	97	
4010	0	60628	29949	97	
4011	0	60621	29948	97	
4012	0	60631	29949	97	
4013	0	60627	29949	97	
4014	0	60629	29948	97	
4015	0	60629	29953	97	
4016	0	60624	29953	97	
4017	0	60624	29949	97	
4018	0	60628	29954	97	
4019	0	60637	29955	97	
4020	0	60631	29958	97	
4021	0	60633	29957	97	
4022	0	60636	29956	97	
4023	0	60640	29956	97	
4024	0	60631	29958	97	
4025	0	60640	29957	97	
4026	0	60638	29963	97	
4027	0	60644	29964	97	
4028	0	60631	29960	97	
4029	0	60639	29960	97	
4030	0	60637	29958	97	
4031	0	60644	29959	97	
4032	0	60644	29962	97	
4033	0	60636	29965	97	
4034	0	60641	29971	97	
4035	0	60645	29964	97	
4036	0	60631	29968	97	
4037	0	60635	29967	97	
4038	0	60640	29968	97	
4039	0	60638	29973	97	
4040	0	60647	29970	97	
4041	0	60644	29972	97	
4042	0	60652	29968	97	
4043	0	60651	29966	97	
4044	0	60645	29972	97	
4045	0	60643	29968	97	
4046	0	60627	29961	97	
4047	0	60625	29960	97	
4048	0	60626	29954	97	
4049	0	60615	29947	97	
4050	0	60617	29945	97	
4051	0	60613	29942	97	
4052	0	60607	29940	97	
4053	0	60600	29936	97	
4054	0	60597	29934	97	
4055	0	60605	29930	97	
4056	0	60596	29927	97	
4057	0	60596	29930	97	
4058	0	60601	29931	97	
4059	0	60599	29925	97	
4060	0	60600	29925	97	
4061	0	60593	29921	97	
4062	0	60595	29917	97	
4063	0	60589	29923	97	
4064	0	60588	29920	97	
4065	0	60592	29920	97	
4066	0	60591	29916	97	
4067	0	60590	29920	97	
4068	0	60584	29911	97	
4069	0	60590	29913	97	
4070	0	60586	29915	97	
4071	0	60594	29914	97	
4072	0	60596	29911	97	
4073	0	60587	29914	97	
4074	0	60596	29917	97	
4075	0	60587	29918	97	
4076	0	60593	29917	97	
4077	0	60598	29919	97	
4078	0	60598	29912	97	
4079	0	60596	29916	97	
4080	0	60598	29919	97	
4081	0	60591	29913	97	
4082	0	60587	29913	97	
4083	0	60596	29914	97	
4084	0	60597	29911	97	
4085	0	60595	29912	97	
4086	0	60591	29917	97	
4087	0	60594	29914	97	
4088	0	60595	29922	97	
4089	0	60598	29916	97	
4090	0	60591	29916	97	
4091	0	60593	29919	97	
4092	0	60595	29922	97	
4093	0	60601	29923	97	
4094	0	60600	29921	97	
4095	0	60599	29918	97	
4096	0	60600	29919	97	
4097	0	60596	29923	97	
4098	0	60601	29926	97	
4099	0	60600	29925	97	
4100	0	60609	29927	97	
4101	0	60605	29930	97	
4102	0	60603	29932	97	
4103	0	60609	29926	97	
4104	0	60610	29932	97	
4105	0	60608	29932	97	
4106	0	60610	29931	97	
4107	0	60614	29926	97	
4108	0	60612	29933	97	
4109	0	60610	29932	97	
4110	0	60609	29929	97	
4111	0	60604	29934	97	
4112	0	60610	29936	97	
4113	0	60614	29939	97	
4114	0	60621	29938	97	
4115	0	60618	29938	97	
4116	0	60615	29939	97	
4117	0	60616	29942	97	
4118	0	60622	29946	97	
4119	0	60620	29943	97	
4120	0	60620	29941	97	
4121	0	60623	29943	97	
4122	0	60627	29939	97	
4123	0	60628	29941	97	
4124	0	60622	29943	97	
4125	0	60626	29939	97	
4126	0	60622	29945	97	
4127	0	60629	29945	97	
4128	0	60627	29947	97	
4129	0	60625	29951	97	
4130	0	60624	29952	97	
4131	0	60632	29949	97	
4132	0	60637	29947	97	
4133	0	60629	29951	97	
4134	0	60636	29955	97	
4135	0	60627	29958	97	
4136	0	60627	29953	97	
4137	0	60636	29957	97	
4138	0	60639	29957	97	
4139	0	60631	29958	97	
4140	0	60633	29955	97	
4141	0	60639	29961	97	
4142	0	60636	29960	97	
4143	0	60628	29960	97	
4144	0	60636	29961	97	
4145	0	60632	29962	97	
4146	0	60626	29960	97	
4147	0	60630	29953	97	
4148	0	60631	29955	97	
4149	0	60620	29950	97	
4150	0	60608	29941	97	
4151	0	60602	29940	97	
4152	0	60601	29939	97	
4153	0	60595	29932	97	
4154	0	60596	29930	97	
4155	0	60590	29929	97	
4156	0	60599	29923	97	
4157	0	60592	29918	97	
4158	0	60596	29921	97	
4159	0	60588	29922	97	
4160	0	60585	29921	97	
4161	0	60582	29920	97	
4162	0	60588	29918	97	
4163	0	60585	29914	97	
4164	0	60580	29914	97	
4165	0	60588	29913	97	
4166	0	60588	29910	97	
4167	0	60578	29912	97	
4168	0	60580	29911	97	
4169	0	60574	29908	97	
4170	0	60576	29906	97	
4171	0	60584	29905	97	
4172	0	60578	29908	97	
4173	0	60582	29911	97	
4174	0	60586	29907	97	
4175	0	60582	29909	97	
4176	0	60579	29908	97	
4177	0	60583	29906	97	
4178	0	60590	29907	97	
4179	0	60585	29905	97	
4180	0	60591	29903	97	
4181	0	60586	29908	97	
4182	0	60591	29901	97	
4183	0	60584	29904	97	
4184	0	60588	29906	97	
4185	0	60590	29902	98	
4186	0	60587	29906	98	
4187	0	60587	29909	98	
4188	0	60588	29907	98	
4189	0	60583	29911	98	
4190	0	60597	29905	98	
4191	0	60594	29910	98	
4192	0	60597	29908	98	
4193	0	60591	29908	98	
4194	0	60592	29915	98	
4195	0	60601	29914	98	
4196	0	60601	29910	98	
4197	0	60594	29915	98	
4198	0	60594	29917	98	
4199	0	60602	29913	98	
4200	0	60600	29917	98	
4201	0	60598	29914	98	
4202	0	60602	29917	98	
4203	0	60608	29922	98	
4204	0	60604	29921	98	
4205	0	60608	29919	98	
4206	0	60610	29926	98	
4207	0	60609	29926	98	
4208	0	60613	29927	98	
4209	0	60604	29927	98	
4210	0	60607	29926	98	
4211	0	60608	29926	98	
4212	0	60613	29926	98	
4213	0	60605	29922	98	
4214	0	60621	29926	98	
4215	0	60619	29931	98	
4216	0	60617	29928	98	
4217	0	60616	29926	98	
4218	0	60614	29928	98	
4219	0	60612	29930	98	
4220	0	60616	29933	98	
4221	0	60614	29929	98	
4222	0	60618	29933	98	
4223	0	60620	29934	98	
4224	0	60620	29930	98	
4225	0	60614	29935	98	
4226	0	60614	29933	98	
4227	0	60623	29938	98	
4228	0	60621	29938	98	
4229	0	60623	29940	98	
4230	0	60621	29937	98	
4231	0	60627	29943	98	
4232	0	60615	29937	98	
4233	0	60623	29941	98	
4234	0	60626	29939	98	
4235	0	60619	29943	98	
4236	0	60626	29942	98	
4237	0	60629	29942	98	
4238	0	60632	29942	98	
4239	0	60628	29941	98	
4240	0	60629	29945	98	
4241	0	60631	29952	98	
4242	0	60628	29948	98	
4243	0	60633	29946	98	
4244	0	60635	29948	98	
4245	0	60627	29948	98	
4246	0	60634	29954	98	
4247	0	60631	29953	98	
4248	0	60630	29950	98	
4249	0	60635	29950	98	
4250	0	60633	29954	98	
4251	0	60630	29958	98	
4252	0	60629	29960	98	
4253	0	60626	29950	98	
4254	0	60620	29944	98	
4255	0	60618	29939	98	
4256	0	60618	29931	98	
4257	0	60607	29932	98	
4258	0	60611	29933	98	
4259	0	60600	29930	98	
4260	0	60602	29926	98	
4261	0	60603	29926	98	
4262	0	60603	29920	98	
4263	0	60603	29923	98	
4264	0	60600	29918	98	
4265	0	60600	29921	98	
4266	0	60593	29918	98	
4267	0	60596	29916	98	
4268	0	60591	29918	98	
4269	0	60601	29914	98	
4270	0	60592	29917	98	
4271	0	60589	29916	98	
4272	0	60592	29918	98	
4273	0	60596	29919	98	
4274	0	60599	29914	98	
4275	0	60593	29915	98	
4276	0	60598	29910	98	
4277	0	60596	29912	98	
4278	0	60594	29912	98	
4279	0	60594	29916	98	
4280	0	60601	29921	98	
4281	0	60592	29916	98	
4282	0	60594	29913	98	
4283	0	60592	29914	98	
4284	0	60602	29915	98	
4285	0	60596	29916	98	
4286	0	60594	29915	98	
4287	0	60593	29916	98	
4288	0	60597	29917	98	
4289	0	60597	29914	98	
4290	0	60594	29916	98	
4291	0	60600	29917	98	
4292	0	60596	29917	98	
4293	0	60598	29918	98	
4294	0	60606	29923	98	
4295	0	60601	29927	98	
4296	0	60602	29925	98	
4297	0	60607	29927	98	
4298	0	60602	29926	98	
4299	0	60608	29921	98	
4300	0	60607	29925	98	
4301	0	60604	29926	98	
4302	0	60607	29923	98	
4303	0	60602	29928	98	
4304	0	60613	29924	98	
4305	0	60613	29931	98	
4306	0	60611	29927	98	
4307	0	60618	29930	98	
4308	0	60611	29926	98	
4309	0	60612	29931	98	
4310	0	60608	29933	98	
4311	0	60607	29932	98	
4312	0	60610	29932	98	
4313	0	60613	29930	98	
4314	0	60614	29934	98	
4315	0	60620	29930	98	
4316	0	60620	29935	98	
4317	0	60620	29936	98	
4318	0	60615	29935	98	
4319	0	60620	29934	98	
4320	0	60617	29937	98	
4321	0	60624	29936	98	
4322	0	60625	29936	98	
4323	0	60619	29937	98	
4324	0	60620	29944	98	
4325	0	60623	29939	98	
4326	0	60627	29939	98	
4327	0	60631	29942	98	
4328	0	60623	29943	98	
4329	0	60630	29946	98	
4330	0	60625	29947	98	
4331	0	60631	29950	98	
4332	0	60633	29945	98	
4333	0	60628	29949	98	
4334	0	60636	29947	98	
4335	0	60633	29953	98	
4336	0	60632	29943	98	
4337	0	60628	29952	98	
4338	0	60633	29948	98	
4339	0	60640	29950	98	
4340	0	60638	29957	98	
4341	0	60637	29950	98	
4342	0	60639	29957	98	
4343	0	60637	29954	98	
4344	0	60643	29955	98	
4345	0	60645	29956	98	
4346	0	60631	29960	98	
4347	0	60635	29960	98	
4348	0	60645	29959	98	
4349	0	60636	29966	98	
4350	0	60633	29964	98	
4351	0	60642	29963	98	
4352	0	60638	29960	98	
4353	0	60637	29962	98	
4354	0	60633	29956	98	
4355	0	60624	29956	98	
4356	0	60626	29954	98	
4357	0	60616	29948	98	
4358	0	60609	29942	98	
4359	0	60617	29937	98	
4360	0	60602	29934	98	
4361	0	60609	29934	98	
4362	0	60608	29931	98	
4363	0	60607	29933	98	
4364	0	60600	29932	98	
4365	0	60600	29929	98	
4366	0	60603	29924	98	
4367	0	60602	29921	98	
4368	0	60601	29925	98	
4369	0	60603	29920	98	
4370	0	60598	29918	98	
4371	0	60600	29914	98	
4372	0	60599	29919	98	
4373	0	60601	29921	98	
4374	0	60601	29919	98	
4375	0	60601	29917	98	
4376	0	60598	29913	98	
4377	0	60598	29920	98	
4378	0	60602	29914	98	
4379	0	60594	29913	98	
4380	0	60592	29911	98	
4381	0	60598	29914	98	
4382	0	60596	29919	98	
4383	0	60598	29919	98	
4384	0	60597	29921	98	
4385	0	60607	29917	98	
4386	0	60596	29916	98	
4387	0	60592	29916	98	
4388	0	60590	29914	98	
4389	0	60594	29920	98	
4390	0	60599	29920	98	
4391	0	60597	29919	98	
4392	0	60601	29917	98	
4393	0	60606	29918	98	
4394	0	60592	29920	98	
4395	0	60602	29922	98	
4396	0	60609	29919	98	
4397	0	60606	29921	98	
4398	0	60609	29919	98	
4399	0	60614	29926	98	
4400	0	60609	29925	98	
4401	0	60610	29927	98	
4402	0	60605	29930	98	
4403	0	60616	29929	98	
4404	0	60609	29928	98	
4405	0	60617	29932	98	
4406	0	60612	29931	98	
4407	0	60621	29932	98	
4408	0	60621	29933	98	
4409	0	60614	29935	98	
4410	0	60619	29930	98	
4411	0	60610	29936	98	
4412	0	60608	29928	98	
4413	0	60618	29930	98	
4414	0	60610	29928	98	
4415	0	60625	29932	98	
4416	0	60618	29932	98	
4417	0	60612	29936	98	
4418	0	60620	29937	98	
4419	0	60618	29934	98	
4420	0	60622	29938	98	
4421	0	60626	29936	98	
4422	0	60629	29931	98	
4423	0	60630	29942	98	
4424	0	60630	29937	98	
4425	0	60634	29947	98	
4426	0	60626	29939	98	
4427	0	60622	29944	98	
4428	0	60633	29942	98	
4429	0	60632	29949	98	
4430	0	60630	29945	98	
4431	0	60625	29945	98	
4432	0	60621	29946	98	
4433	0	60633	29947	98	
4434	0	60626	29949	98	
4435	0	60637	29949	98	
4436	0	60631	29945	98	
4437	0	60623	29951	98	
4438	0	60631	29953	98	
4439	0	60636	29955	98	
4440	0	60628	29950	98	
4441	0	60629	29952	98	
4442	0	60645	29956	98	
4443	0	60634	29959	98	
4444	0	60634	29957	98	
4445	0	60643	29957	98	
4446	0	60636	29957	98	
4447	0	60647	29963	98	
4448	0	60649	29961	98	
4449	0	60642	29965	98	
4450	0	60638	29960	98	
4451	0	60637	29962	98	
4452	0	60640	29951	98	
4453	0	60632	29955	98	
4454	0	60616	29948	98	
4455	0	60614	29941	98	
4456	0	60614	29939	98	
4457	0	60610	29937	98	
4458	0	60607	29932	98	
4459	0	60602	29931	98	
4460	0	60597	29931	98	
4461	0	60602	29930	98	
4462	0	60589	29921	98	
4463	0	60596	29928	98	
4464	0	60591	29919	98	
4465	0	60595	29927	98	
4466	0	60601	29918	98	
4467	0	60600	29920	98	
4468	0	60593	29914	98	
4469	0	60591	29922	98	
4470	0	60589	29912	98	
4471	0	60589	29920	98	
4472	0	60584	29909	98	
4473	0	60591	29915	98	
4474	0	60592	29911	98	
4475	0	60597	29911	98	
4476	0	60595	29909	98	
4477	0	60600	29914	98	
4478	0	60591	29914	98	
4479	0	60598	29911	98	
4480	0	60595	29913	98	
4481	0	60603	29920	98	
4482	0	60602	29914	98	
4483	0	60599	29911	98	
4484	0	60600	29911	98	
4485	0	60594	29918	97	
4486	0	60590	29910	97	
4487	0	60590	29918	97	
4488	0	60591	29910	97	
4489	0	60593	29916	97	
4490	0	60593	29912	97	
4491	0	60594	29915	97	
4492	0	60595	29909	97	
4493	0	60597	29917	97	
4494	0	60595	29914	97	
4495	0	60601	29920	97	
4496	0	60598	29913	97	
4497	0	60601	29913	97	
4498	0	60607	29918	97	
4499	0	60599	29922	97	
4500	0	60604	29920	97	
4501	0	60608	29923	97	
4502	0	60600	29918	97	
4503	0	60611	29925	97	
4504	0	60605	29925	97	
4505	0	60603	29926	97	
4506	0	60602	29926	97	
4507	0	60606	29928	97	
4508	0	60606	29925	97	
4509	0	60612	29923	97	
4510	0	60615	29925	97	
4511	0	60611	29929	97	
4512	0	60609	29929	97	
4513	0	60607	29933	97	
4514	0	60615	29929	97	
4515	0	60607	29930	97	
4516	0	60615	29926	97	
4517	0	60607	29929	97	
4518	0	60624	29934	97	
4519	0	60618	29931	97	
4520	0	60618	29932	97	
4521	0	60615	29936	97	
4522	0	60621	29929	97	
4523	0	60615	29935	97	
4524	0	60615	29931	97	
4525	0	60624	29937	97	
4526	0	60620	29932	97	
4527	0	60617	29943	97	
4528	0	60620	29943	97	
4529	0	60626	29948	97	
4530	0	60624	29942	97	
4531	0	60626	29945	97	
4532	0	60627	29941	97	
4533	0	60626	29951	97	
4534	0	60631	29946	97	
4535	0	60629	29947	97	
4536	0	60635	29947	97	
4537	0	60631	29952	97	
4538	0	60635	29953	97	
4539	0	60632	29954	97	
4540	0	60638	29953	97	
4541	0	60631	29961	97	
4542	0	60637	29956	97	
4543	0	60632	29950	97	
4544	0	60632	29958	97	
4545	0	60636	29955	97	
4546	0	60636	29956	97	
4547	0	60642	29961	97	
4548	0	60644	29953	97	
4549	0	60637	29960	97	
4550	0	60628	29956	97	
4551	0	60638	29953	97	
4552	0	60629	29952	97	
4553	0	60621	29948	97	
4554	0	60618	29941	97	
4555	0	60614	29941	97	
4556	0	60604	29936	97	
4557	0	60599	29927	97	
4558	0	60602	29927	97	
4559	0	60605	29928	97	
4560	0	60599	29927	97	
4561	0	60595	29927	97	
4562	0	60597	29922	97	
4563	0	60594	29921	97	
4564	0	60598	29922	97	
4565	0	60598	29925	97	
4566	0	60597	29923	97	
4567	0	60586	29920	97	
4568	0	60593	29916	97	
4569	0	60594	29917	97	
4570	0	60589	29918	97	
4571	0	60593	29916	97	
4572	0	60584	29913	97	
4573	0	60586	29913	97	
4574	0	60584	29911	97	
4575	0	60590	29911	97	
4576	0	60590	29908	97	
4577	0	60586	29916	97	
4578	0	60598	29907	97	
4579	0	60592	29915	97	
4580	0	60587	29912	97	
4581	0	60587	29916	97	
4582	0	60586	29914	97	
4583	0	60593	29911	97	
4584	0	60585	29910	97	
4585	0	60586	29911	97	
4586	0	60585	29908	97	
4587	0	60584	29914	97	
4588	0	60587	29915	97	
4589	0	60597	29914	97	
4590	0	60588	29916	97	
4591	0	60596	29914	97	
4592	0	60591	29915	97	
4593	0	60600	29918	97	
4594	0	60595	29918	97	
4595	0	60593	29916	97	
4596	0	60601	29917	97	
4597	0	60596	29918	97	
4598	0	60602	29921	97	
4599	0	60598	29919	97	
4600	0	60604	29919	97	
4601	0	60601	29923	97	
4602	0	60600	29922	97	
4603	0	60599	29921	97	
4604	0	60604	29922	97	
4605	0	60602	29926	97	
4606	0	60608	29920	97	
4607	0	60603	29923	97	
4608	0	60618	29928	97	
4609	0	60605	29932	97	
4610	0	60602	29928	97	
4611	0	60606	29925	97	
4612	0	60610	29933	97	
4613	0	60621	29936	97	
4614	0	60610	29937	97	
4615	0	60608	29936	97	
4616	0	60610	29936	97	
4617	0	60614	29939	97	
4618	0	60618	29934	97	
4619	0	60615	29938	97	
4620	0	60612	29934	97	
4621	0	60618	29941	97	
4622	0	60614	29938	97	
4623	0	60623	29943	97	
4624	0	60616	29945	97	
4625	0	60617	29942	97	
4626	0	60619	29941	97	
4627	0	60617	29939	97	
4628	0	60623	29943	97	
4629	0	60623	29947	97	
4630	0	60612	29945	97	
4631	0	60625	29950	97	
4632	0	60624	29946	97	
4633	0	60620	29947	97	
4634	0	60620	29945	97	
4635	0	60623	29950	97	
4636	0	60625	29949	97	
4637	0	60623	29948	97	
4638	0	60622	29949	97	
4639	0	60628	29950	97	
4640	0	60621	29952	97	
4641	0	60626	29952	97	
4642	0	60630	29955	97	
4643	0	60628	29953	97	
4644	0	60624	29955	97	
4645	0	60631	29952	97	
4646	0	60628	29956	97	
4647	0	60633	29954	97	
4648	0	60633	29958	97	
4649	0	60638	29962	97	
4650	0	60634	29958	97	
4651	0	60629	29955	97	
4652	0	60630	29957	97	
4653	0	60619	29950	97	
4654	0	60617	29946	97	
4655	0	60611	29942	97	
4656	0	60609	29936	97	
4657	0	60596	29933	97	
4658	0	60599	29930	97	
4659	0	60604	29926	97	
4660	0	60593	29921	97	
4661	0	60597	29926	97	
4662	0	60597	29919	97	
4663	0	60590	29922	97	
4664	0	60585	29916	97	
4665	0	60591	29919	97	
4666	0	60589	29916	97	
4667	0	60591	29914	97	
4668	0	60589	29915	97	
4669	0	60582	29913	97	
4670	0	60589	29913	97	
4671	0	60579	29909	97	
4672	0	60585	29912	97	
4673	0	60584	29910	97	
4674	0	60576	29910	97	
4675	0	60576	29910	97	
4676	0	60575	29907	97	
4677	0	60580	29909	97	
4678	0	60587	29902	97	
4679	0	60579	29912	97	
4680	0	60590	29910	97	
4681	0	60585	29915	97	
4682	0	60591	29915	97	
4683	0	60595	29914	97	
4684	0	60594	29914	97	
4685	0	60587	29916	97	
4686	0	60590	29917	97	
4687	0	60593	29915	97	
4688	0	60589	29914	97	
4689	0	60592	29912	97	
4690	0	60584	29913	97	
4691	0	60597	29914	97	
4692	0	60585	29916	97	
4693	0	60593	29918	97	
4694	0	60595	29923	97	
4695	0	60594	29917	97	
4696	0	60586	29919	97	
4697	0	60589	29915	97	
4698	0	60596	29919	97	
4699	0	60603	29924	97	
4700	0	60604	29924	97	
4701	0	60591	29922	97	
4702	0	60605	29922	97	
4703	0	60593	29918	97	
4704	0	60599	29923	97	
4705	0	60592	29922	97	
4706	0	60606	29922	97	
4707	0	60606	29919	97	
4708	0	60597	29925	97	
4709	0	60604	29922	97	
4710	0	60607	29922	97	
4711	0	60601	29928	97	
4712	0	60603	29932	97	
4713	0	60604	29927	97	
4714	0	60612	29932	97	
4715	0	60609	29930	97	
4716	0	60602	29930	97	
4717	0	60605	29936	97	
4718	0	60604	29935	97	
4719	0	60602	29931	97	
4720	0	60614	29932	97	
4721	0	60608	29932	97	
4722	0	60605	29938	97	
4723	0	60614	29937	97	
4724	0	60608	29937	97	
4725	0	60612	29937	97	
4726	0	60619	29940	97	
4727	0	60606	29935	97	
4728	0	60620	29936	97	
4729	0	60621	29940	97	
4730	0	60619	29942	97	
4731	0	60613	29945	97	
4732	0	60612	29942	97	
4733	0	60623	29939	97	
4734	0	60623	29945	97	
4735	0	60614	29945	97	
4736	0	60622	29950	97	
4737	0	60620	29950	97	
4738	0	60623	29952	97	
4739	0	60619	29948	97	
4740	0	60628	29955	97	
4741	0	60628	29953	97	
4742	0	60626	29951	97	
4743	0	60634	29952	97	
4744	0	60629	29949	97	
4745	0	60628	29952	97	
4746	0	60627	29951	97	
4747	0	60621	29957	97	
4748	0	60618	29953	97	
4749	0	60618	29946	97	
4750	0	60609	29949	97	
4751	0	60609	29945	97	
4752	0	60603	29934	97	
4753	0	60601	29935	97	
4754	0	60593	29930	97	
4755	0	60590	29929	97	
4756	0	60586	29921	97	
4757	0	60582	29920	97	
4758	0	60591	29925	97	
4759	0	60581	29922	97	
4760	0	60580	29912	97	
4761	0	60578	29912	97	
4762	0	60578	29911	97	
4763	0	60577	29911	97	
4764	0	60579	29910	97	
4765	0	60583	29910	97	
4766	0	60574	29907	97	
4767	0	60580	29909	97	
4768	0	60582	29908	97	
4769	0	60574	29906	97	
4770	0	60569	29907	97	
4771	0	60574	29906	97	
4772	0	60573	29906	97	
4773	0	60571	29901	97	
4774	0	60572	29905	97	
4775	0	60578	29905	97	
4776	0	60573	29898	97	
4777	0	60571	29903	97	
4778	0	60577	29903	97	
4779	0	60580	29905	97	
4780	0	60577	29907	97	
4781	0	60570	29905	97	
4782	0	60572	29905	97	
4783	0	60577	29907	97	
4784	0	60574	29901	97	
4785	0	60581	29901	97	
4786	0	60574	29904	97	
4787	0	60579	29906	97	
4788	0	60579	29910	97	
4789	0	60577	29907	97	
4790	0	60585	29908	97	
4791	0	60585	29906	97	
4792	0	60582	29908	97	
4793	0	60583	29910	97	
4794	0	60580	29909	97	
4795	0	60586	29906	97	
4796	0	60586	29916	97	
4797	0	60588	29919	97	
4798	0	60585	29914	97	
4799	0	60580	29916	97	
4800	0	60593	29916	97	
4801	0	60588	29917	97	
4802	0	60590	29914	97	
4803	0	60592	29921	97	
4804	0	60592	29920	97	
4805	0	60595	29923	97	
4806	0	60596	29919	97	
4807	0	60592	29923	97	
4808	0	60594	29919	97	
4809	0	60587	29919	97	
4810	0	60601	29921	97	
4811	0	60591	29917	97	
4812	0	60598	29921	97	
4813	0	60594	29920	97	
4814	0	60596	29922	97	
4815	0	60602	29924	97	
4816	0	60605	29924	97	
4817	0	60601	29921	97	
4818	0	60603	29921	97	
4819	0	60598	29926	97	
4820	0	60597	29927	97	
4821	0	60601	29924	97	
4822	0	60611	29926	97	
4823	0	60601	29929	97	
4824	0	60603	29925	97	
4825	0	60610	29927	97	
4826	0	60602	29933	97	
4827	0	60603	29929	97	
4828	0	60606	29932	97	
4829	0	60607	29931	97	
4830	0	60612	29934	97	
4831	0	60607	29939	97	
4832	0	60610	29936	97	
4833	0	60612	29936	97	
4834	0	60618	29935	97	
4835	0	60613	29933	97	
4836	0	60608	29943	97	
4837	0	60615	29939	97	
4838	0	60610	29940	97	
4839	0	60619	29941	97	
4840	0	60610	29941	97	
4841	0	60619	29943	97	
4842	0	60612	29942	97	
4843	0	60619	29947	97	
4844	0	60613	29944	97	
4845	0	60614	29950	97	
4846	0	60618	29951	97	
4847	0	60615	29950	97	
4848	0	60615	29942	97	
4849	0	60616	29944	97	
4850	0	60617	29942	97	
4851	0	60614	29943	97	
4852	0	60602	29933	97	
4853	0	60592	29937	97	
4854	0	60590	29925	97	
4855	0	60579	29918	97	
4856	0	60580	29917	97	
4857	0	60581	29914	97	
4858	0	60581	29914	97	
4859	0	60576	29910	97	
4860	0	60581	29908	97	
4861	0	60578	29910	97	
4862	0	60571	29907	97	
4863	0	60571	29907	97	
4864	0	60574	29907	97	
4865	0	60575	29906	97	
4866	0	60577	29902	97	
4867	0	60568	29902	97	
4868	0	60572	29899	97	
4869	0	60567	29899	97	
4870	0	60566	29899	97	
4871	0	60562	29897	97	
4872	0	60558	29899	97	
4873	0	60567	29902	97	
4874	0	60554	29897	97	
4875	0	60561	29899	97	
4876	0	60569	29896	97	
4877	0	60560	29898	97	
4878	0	60568	29902	97	
4879	0	60577	29903	97	
4880	0	60566	29896	97	
4881	0	60570	29892	97	
4882	0	60575	29894	97	
4883	0	60567	29898	97	
4884	0	60568	29899	97	
4885	0	60571	29906	97	
4886	0	60564	29901	97	
4887	0	60576	29899	97	
4888	0	60568	29901	97	
4889	0	60571	29899	97	
4890	0	60576	29902	97	
4891	0	60574	29904	97	
4892	0	60571	29896	97	
4893	0	60578	29899	97	
4894	0	60575	29902	97	
4895	0	60574	29904	97	
4896	0	60573	29904	97	
4897	0	60580	29905	97	
4898	0	60572	29907	97	
4899	0	60584	29902	97	
4900	0	60578	29907	97	
4901	0	60581	29910	97	
4902	0	60580	29912	97	
4903	0	60574	29911	97	
4904	0	60584	29912	97	
4905	0	60581	29917	97	
4906	0	60583	29914	97	
4907	0	60587	29915	97	
4908	0	60583	29914	97	
4909	0	60583	29915	97	
4910	0	60591	29913	97	
4911	0	60589	29923	97	
4912	0	60588	29916	97	
4913	0	60584	29916	97	
4914	0	60595	29919	97	
4915	0	60586	29918	97	
4916	0	60588	29915	97	
4917	0	60592	29916	97	
4918	0	60594	29917	97	
4919	0	60592	29920	97	
4920	0	60593	29918	97	
4921	0	60590	29913	97	
4922	0	60591	29918	97	
4923	0	60595	29921	97	
4924	0	60596	29922	97	
4925	0	60601	29921	97	
4926	0	60589	29920	97	
4927	0	60594	29925	97	
4928	0	60598	29925	97	
4929	0	60597	29926	97	
4930	0	60603	29929	97	
4931	0	60602	29927	97	
4932	0	60605	29932	97	
4933	0	60603	29931	97	
4934	0	60603	29926	97	
4935	0	60598	29932	97	
4936	0	60604	29929	97	
4937	0	60601	29935	97	
4938	0	60599	29935	97	
4939	0	60608	29937	97	
4940	0	60605	29939	97	
4941	0	60596	29934	97	
4942	0	60598	29934	97	
4943	0	60612	29939	97	
4944	0	60610	29942	97	
4945	0	60615	29935	97	
4946	0	60615	29939	97	
4947	0	60612	29936	97	
4948	0	60608	29940	97	
4949	0	60612	29940	97	
4950	0	60618	29937	97	
4951	0	60603	29937	97	
4952	0	60607	29933	97	
4953	0	60592	29921	97	
4954	0	60589	29918	97	
4955	0	60581	29912	97	
4956	0	60578	29915	97	
4957	0	60570	29907	97	
4958	0	60569	29905	97	
4959	0	60566	29908	97	
4960	0	60574	29902	97	
4961	0	60565	29903	97	
4962	0	60565	29909	97	
4963	0	60571	29903	97	
4964	0	60566	29900	97	
4965	0	60561	29900	97	
4966	0	60567	29894	97	
4967	0	60563	29898	97	
4968	0	60562	29895	97	
4969	0	60568	29889	97	
4970	0	60566	29889	97	
4971	0	60567	29894	97	
4972	0	60560	29893	97	
4973	0	60557	29890	97	
4974	0	60564	29894	97	
4975	0	60557	29886	97	
4976	0	60553	29887	97	
4977	0	60556	29887	97	
4978	0	60559	29887	97	
4979	0	60563	29883	97	
4980	0	60560	29890	97	
4981	0	60552	29889	97	
4982	0	60561	29884	97	
4983	0	60555	29889	97	
4984	0	60558	29888	97	
4985	0	60556	29891	97	
4986	0	60565	29883	97	
4987	0	60563	29889	97	
4988	0	60555	29887	97	
4989	0	60565	29884	97	
4990	0	60568	29884	97	
4991	0	60562	29889	97	
4992	0	60559	29886	97	
4993	0	60571	29886	97	
4994	0	60571	29891	97	
4995	0	60568	29891	97	
4996	0	60570	29886	97	
4997	0	60573	29890	97	
4998	0	60573	29894	97	
4999	0	60578	29891	97	
5000	0	60570	29891	97	
5001	0	60578	29898	97	
5002	0	60582	29897	97	
5003	0	60570	29902	97	
5004	0	60570	29896	97	
5005	0	60575	29898	97	
5006	0	60577	29898	97	
5007	0	60572	29898	97	
5008	0	60572	29905	97	
5009	0	60572	29904	97	
5010	0	60579	29904	97	
5011	0	60575	29905	97	
5012	0	60576	29903	97	
5013	0	60584	29905	97	
5014	0	60584	29910	97	
5015	0	60589	29910	97	
5016	0	60584	29906	97	
5017	0	60576	29910	97	
5018	0	60581	29909	97	
5019	0	60582	29912	97	
5020	0	60586	29915	97	
5021	0	60589	29917	97	
5022	0	60593	29916	97	
5023	0	60586	29916	97	
5024	0	60592	29918	97	
5025	0	60595	29921	97	
5026	0	60582	29921	97	
5027	0	60588	29922	97	
5028	0	60584	29918	97	
5029	0	60588	29918	97	
5030	0	60588	29920	97	
5031	0	60588	29926	97	
5032	0	60587	29922	97	
5033	0	60587	29925	97	
5034	0	60594	29921	97	
5035	0	60593	29927	97	
5036	0	60593	29926	97	
5037	0	60594	29930	97	
5038	0	60596	29926	97	
5039	0	60608	29930	97	
5040	0	60598	29931	97	
5041	0	60604	29931	97	
5042	0	60599	29931	97	
5043	0	60604	29934	97	
5044	0	60610	29935	97	
5045	0	60607	29934	97	
5046	0	60611	29931	97	
5047	0	60604	29930	97	
5048	0	60608	29931	97	
5049	0	60596	29930	97	
5050	0	60588	29928	97	
5051	0	60583	29924	97	
5052	0	60583	29916	97	
5053	0	60572	29911	97	
5054	0	60566	29908	97	
5055	0	60568	29904	97	
5056	0	60562	29894	97	
5057	0	60563	29898	97	
5058	0	60556	29892	97	
5059	0	60563	29894	97	
5060	0	60551	29888	97	
5061	0	60554	29886	97	
5062	0	60551	29889	97	
5063	0	60554	29886	97	
5064	0	60544	29881	97	
5065	0	60548	29879	97	
5066	0	60544	29883	97	
5067	0	60550	29876	97	
5068	0	60542	29875	97	
5069	0	60547	29875	97	
5070	0	60541	29876	97	
5071	0	60545	29878	97	
5072	0	60535	29876	97	
5073	0	60539	29875	97	
5074	0	60541	29876	97	
5075	0	60552	29880	97	
5076	0	60540	29875	97	
5077	0	60552	29881	97	
5078	0	60545	29875	97	
5079	0	60538	29880	97	
5080	0	60538	29878	97	
5081	0	60545	29879	97	
5082	0	60539	29877	97	
5083	0	60546	29880	97	
5084	0	60541	29877	97	
5085	0	60542	29879	97	
5086	0	60542	29877	97	
5087	0	60544	29878	97	
5088	0	60545	29877	97	
5089	0	60545	29880	97	
5090	0	60554	29884	97	
5091	0	60548	29886	97	
5092	0	60549	29880	97	
5093	0	60554	29881	97	
5094	0	60556	29879	97	
5095	0	60550	29882	97	
5096	0	60558	29884	97	
5097	0	60559	29882	97	
5098	0	60554	29882	97	
5099	0	60553	29888	97	
5100	0	60562	29890	97	
5101	0	60557	29891	97	
5102	0	60563	29887	97	
5103	0	60565	29893	97	
5104	0	60556	29888	97	
5105	0	60569	29896	97	
5106	0	60561	29889	97	
5107	0	60566	29892	97	
5108	0	60573	29891	97	
5109	0	60572	29896	97	
5110	0	60563	29893	97	
5111	0	60567	29895	97	
5112	0	60570	29892	97	
5113	0	60569	29895	97	
5114	0	60564	29895	97	
5115	0	60566	29896	97	
5116	0	60565	29897	97	
5117	0	60570	29904	97	
5118	0	60567	29903	97	
5119	0	60571	29902	97	
5120	0	60573	29899	97	
5121	0	60574	29905	97	
5122	0	60577	29900	97	
5123	0	60580	29907	97	
5124	0	60582	29905	97	
5125	0	60577	29909	97	
5126	0	60571	29910	97	
5127	0	60577	29907	97	
5128	0	60585	29908	97	
5129	0	60579	29910	97	
5130	0	60581	29903	97	
5131	0	60589	29912	97	
5132	0	60583	29910	97	
5133	0	60588	29910	97	
5134	0	60584	29915	97	
5135	0	60586	29915	97	
5136	0	60589	29911	97	
5137	0	60595	29919	97	
5138	0	60583	29913	97	
5139	0	60590	29924	97	
5140	0	60597	29913	97	
5141	0	60592	29919	97	
5142	0	60592	29914	97	
5143	0	60592	29919	97	
5144	0	60593	29916	97	
5145	0	60594	29927	97	
5146	0	60593	29922	97	
5147	0	60597	29923	97	
5148	0	60593	29922	97	
5149	0	60600	29926	97	
5150	0	60587	29921	97	
5151	0	60585	29918	97	
5152	0	60582	29911	97	
5153	0	60577	29909	97	
5154	0	60564	29906	97	
5155	0	60567	29899	97	
5156	0	60553	29895	97	
5157	0	60557	29893	97	
5158	0	60556	29888	97	
5159	0	60550	29892	97	
5160	0	60547	29881	97	
5161	0	60549	29882	97	
5162	0	60551	29878	97	
5163	0	60549	29877	97	
5164	0	60547	29870	97	
5165	0	60538	29878	97	
5166	0	60543	29871	97	
5167	0	60537	29872	97	
5168	0	60539	29868	97	
5169	0	60539	29870	97	
5170	0	60532	29869	97	
5171	0	60537	29871	97	
5172	0	60532	29872	97	
5173	0	60537	29867	97	
5174	0	60538	29870	97	
5175	0	60537	29872	97	
5176	0	60530	29873	97	
5177	0	60531	29870	97	
5178	0	60538	29868	97	
5179	0	60531	29870	97	
5180	0	60532	29870	97	
5181	0	60539	29868	97	
5182	0	60534	29871	97	
5183	0	60539	29871	97	
5184	0	60540	29870	97	
5185	0	60539	29871	97	
5186	0	60531	29864	97	
5187	0	60535	29864	97	
5188	0	60535	29868	97	
5189	0	60538	29871	97	
5190	0	60534	29873	97	
5191	0	60547	29870	97	
5192	0	60536	29871	97	
5193	0	60542	29872	97	
5194	0	60547	29872	97	
5195	0	60550	29870	97	
5196	0	60548	29870	97	
5197	0	60546	29875	97	
5198	0	60550	29872	97	
5199	0	60544	29880	97	
5200	0	60549	29874	97	
5201	0	60544	29879	97	
5202	0	60555	29870	97	
5203	0	60550	29881	97	
5204	0	60546	29880	97	
5205	0	60548	29884	97	
5206	0	60548	29881	97	
5207	0	60551	29885	97	
5208	0	60557	29882	97	
5209	0	60558	29887	97	
5210	0	60553	29883	97	
5211	0	60562	29881	97	
5212	0	60554	29884	97	
5213	0	60561	29891	97	
5214	0	60555	29887	97	
5215	0	60558	29890	97	
5216	0	60559	29884	97	
5217	0	60564	29887	97	
5218	0	60559	29891	97	
5219	0	60562	29885	97	
5220	0	60558	29886	97	
5221	0	60560	29886	97	
5222	0	60568	29891	97	
5223	0	60566	29894	97	
5224	0	60562	29893	97	
5225	0	60569	29894	97	
5226	0	60564	29895	97	
5227	0	60572	29898	97	
5228	0	60569	29895	97	
5229	0	60576	29901	97	
5230	0	60569	29901	97	
5231	0	60569	29903	97	
5232	0	60568	29902	97	
