# OpenSignals Text File Format. Version 1
# {"84:2E:14:0C:D8:EF": {"position": 0, "device": "biosignalsplux", "device name": "84:2E:14:0C:D8:EF", "device connection": "BTH84:2E:14:0C:D8:EF", "sampling rate": 100, "resolution": [16, 16], "firmware version": 779, "comments": "", "keywords": "", "mode": 0, "sync interval": 2, "date": "2026-4-17", "time": "18:24:45.20", "channels": [9, 10, 11], "sensor": ["fSpO2", "fSpO2", "%SpO2"], "label": ["CH9A", "CH9B", "%SpO2"], "column": ["nSeq", "DI", "CH9A", "CH9B", "%SpO2"], "special": [{"SpO2": [80, 40, 5, 4, 3, 3]}, {"SpO2": [80, 40, 5, 4, 3, 3]}, {"SpO2": [80, 40, 5, 4, 3, 3]}, {"SpO2": [80, 40, 5, 4, 3, 3]}, {"SpO2": [80, 40, 5, 4, 3, 3]}, {"SpO2": [80, 40, 5, 4, 3, 3]}, {"SpO2": [80, 40, 5, 4, 3, 3]}, {"SpO2": [80, 40, 5, 4, 3, 3]}, {"SpO2": [80, 40, 5, 4, 3, 3]}, {"SpO2": [80, 40, 5, 4, 3, 3]}], "digital IO": [0, 1], "virtual channels": "{'channels': [11], 'calculationChannels': [[9, 10]]}", "sleeve color": ["yellow", "yellow", "dark_blue"]}}
# EndOfHeader
0	0	31384	15183	0	
1	0	31389	15180	0	
2	0	31384	15181	0	
3	0	31378	15175	0	
4	0	31375	15171	0	
5	0	31368	15169	0	
6	0	31355	15160	0	
7	0	31344	15150	0	
8	0	31333	15145	0	
9	0	31323	15135	0	
10	0	31314	15123	0	
11	0	31309	15110	0	
12	0	31299	15101	0	
13	0	31293	15098	0	
14	0	31289	15094	0	
15	0	31292	15095	0	
16	0	31290	15090	0	
17	0	31291	15087	0	
18	0	31289	15088	0	
19	0	31295	15085	0	
20	0	31297	15085	0	
21	0	31302	15088	0	
22	0	31301	15088	0	
23	0	31304	15087	0	
24	0	31308	15090	0	
25	0	31309	15092	0	
26	0	31310	15094	0	
27	0	31311	15093	0	
28	0	31316	15098	0	
29	0	31317	15098	0	
30	0	31322	15099	0	
31	0	31319	15098	0	
32	0	31316	15103	0	
33	0	31319	15100	0	
34	0	31320	15105	0	
35	0	31319	15102	0	
36	0	31320	15106	0	
37	0	31317	15105	0	
38	0	31318	15106	0	
39	0	31318	15104	0	
40	0	31318	15100	0	
41	0	31317	15099	0	
42	0	31313	15102	0	
43	0	31312	15100	0	
44	0	31313	15104	0	
45	0	31309	15103	0	
46	0	31310	15103	0	
47	0	31312	15104	0	
48	0	31312	15105	0	
49	0	31313	15105	0	
50	0	31312	15107	0	
51	0	31318	15106	0	
52	0	31315	15109	0	
53	0	31322	15111	0	
54	0	31324	15113	0	
55	0	31326	15118	0	
56	0	31328	15120	0	
57	0	31328	15119	0	
58	0	31334	15122	0	
59	0	31335	15124	0	
60	0	31339	15123	0	
61	0	31339	15124	0	
62	0	31338	15125	0	
63	0	31339	15126	0	
64	0	31341	15132	0	
65	0	31341	15132	0	
66	0	31343	15135	0	
67	0	31344	15137	0	
68	0	31351	15142	0	
69	0	31352	15140	0	
70	0	31357	15144	0	
71	0	31353	15145	0	
72	0	31357	15145	0	
73	0	31355	15147	0	
74	0	31355	15145	0	
75	0	31359	15148	0	
76	0	31358	15153	0	
77	0	31365	15152	0	
78	0	31362	15152	0	
79	0	31361	15153	0	
80	0	31365	15152	0	
81	0	31367	15152	0	
82	0	31370	15156	0	
83	0	31369	15155	0	
84	0	31368	15157	0	
85	0	31369	15157	0	
86	0	31372	15160	0	
87	0	31370	15164	0	
88	0	31373	15163	0	
89	0	31371	15165	0	
90	0	31368	15163	0	
91	0	31362	15162	0	
92	0	31358	15160	0	
93	0	31349	15147	0	
94	0	31339	15139	0	
95	0	31332	15133	0	
96	0	31324	15125	0	
97	0	31311	15114	0	
98	0	31308	15108	0	
99	0	31304	15100	0	
100	0	31303	15097	0	
101	0	31298	15093	0	
102	0	31299	15094	0	
103	0	31305	15088	0	
104	0	31299	15089	0	
105	0	31309	15089	0	
106	0	31307	15090	0	
107	0	31312	15091	0	
108	0	31308	15091	0	
109	0	31310	15094	0	
110	0	31314	15096	0	
111	0	31318	15096	0	
112	0	31318	15095	0	
113	0	31323	15096	0	
114	0	31326	15099	0	
115	0	31325	15099	0	
116	0	31327	15097	0	
117	0	31330	15104	0	
118	0	31327	15105	0	
119	0	31328	15106	0	
120	0	31332	15103	0	
121	0	31325	15102	0	
122	0	31324	15104	0	
123	0	31326	15109	0	
124	0	31317	15104	0	
125	0	31319	15101	0	
126	0	31321	15103	0	
127	0	31318	15102	0	
128	0	31313	15101	0	
129	0	31315	15101	0	
130	0	31317	15100	0	
131	0	31316	15104	0	
132	0	31315	15102	0	
133	0	31320	15106	0	
134	0	31315	15106	0	
135	0	31319	15103	0	
136	0	31317	15103	0	
137	0	31318	15108	0	
138	0	31327	15109	0	
139	0	31328	15119	0	
140	0	31328	15116	0	
141	0	31330	15115	0	
142	0	31335	15118	0	
143	0	31337	15122	0	
144	0	31338	15119	0	
145	0	31341	15128	0	
146	0	31344	15128	0	
147	0	31342	15127	0	
148	0	31351	15128	0	
149	0	31352	15133	0	
150	0	31356	15133	0	
151	0	31355	15138	0	
152	0	31351	15135	0	
153	0	31358	15137	0	
154	0	31356	15138	0	
155	0	31356	15144	0	
156	0	31358	15140	0	
157	0	31356	15144	0	
158	0	31360	15146	0	
159	0	31360	15147	0	
160	0	31365	15150	0	
161	0	31359	15146	0	
162	0	31370	15148	0	
163	0	31362	15149	0	
164	0	31363	15152	0	
165	0	31364	15151	0	
166	0	31365	15149	0	
167	0	31362	15152	0	
168	0	31364	15151	0	
169	0	31366	15149	0	
170	0	31364	15155	0	
171	0	31367	15152	0	
172	0	31363	15154	0	
173	0	31363	15154	0	
174	0	31361	15152	0	
175	0	31357	15149	0	
176	0	31348	15141	0	
177	0	31340	15132	0	
178	0	31333	15127	0	
179	0	31321	15117	0	
180	0	31313	15107	0	
181	0	31308	15100	0	
182	0	31306	15095	0	
183	0	31294	15090	0	
184	0	31300	15089	0	
185	0	31295	15086	0	
186	0	31291	15085	0	
187	0	31297	15081	0	
188	0	31296	15077	0	
189	0	31303	15080	0	
190	0	31302	15082	0	
191	0	31304	15082	0	
192	0	31311	15081	0	
193	0	31314	15084	0	
194	0	31312	15086	0	
195	0	31313	15090	0	
196	0	31318	15089	0	
197	0	31326	15090	0	
198	0	31324	15094	0	
199	0	31328	15094	0	
200	0	31325	15095	0	
201	0	31325	15101	0	
202	0	31332	15104	0	
203	0	31328	15103	0	
204	0	31329	15104	0	
205	0	31322	15104	0	
206	0	31323	15099	0	
207	0	31324	15102	0	
208	0	31320	15098	0	
209	0	31316	15101	0	
210	0	31312	15099	0	
211	0	31312	15097	0	
212	0	31319	15100	0	
213	0	31310	15094	0	
214	0	31312	15095	0	
215	0	31309	15100	0	
216	0	31317	15101	0	
217	0	31320	15102	0	
218	0	31316	15104	0	
219	0	31318	15103	0	
220	0	31319	15104	0	
221	0	31322	15108	0	
222	0	31320	15105	0	
223	0	31321	15103	0	
224	0	31326	15107	0	
225	0	31331	15107	0	
226	0	31335	15113	0	
227	0	31333	15116	0	
228	0	31332	15116	0	
229	0	31336	15119	0	
230	0	31344	15124	0	
231	0	31345	15123	0	
232	0	31342	15129	0	
233	0	31348	15128	0	
234	0	31353	15127	0	
235	0	31350	15133	0	
236	0	31352	15133	0	
237	0	31354	15134	0	
238	0	31354	15137	0	
239	0	31356	15137	0	
240	0	31355	15140	0	
241	0	31358	15141	0	
242	0	31365	15145	0	
243	0	31367	15146	0	
244	0	31369	15145	0	
245	0	31364	15148	0	
246	0	31365	15148	0	
247	0	31367	15148	0	
248	0	31366	15150	0	
249	0	31371	15148	0	
250	0	31368	15151	0	
251	0	31374	15152	0	
252	0	31375	15156	0	
253	0	31375	15154	0	
254	0	31376	15154	0	
255	0	31373	15157	0	
256	0	31375	15157	0	
257	0	31372	15157	0	
258	0	31368	15152	0	
259	0	31361	15145	0	
260	0	31347	15136	0	
261	0	31342	15127	0	
262	0	31327	15117	0	
263	0	31313	15104	0	
264	0	31303	15096	0	
265	0	31297	15091	0	
266	0	31300	15081	0	
267	0	31294	15079	0	
268	0	31292	15074	0	
269	0	31289	15071	0	
270	0	31291	15066	0	
271	0	31285	15067	0	
272	0	31293	15065	0	
273	0	31296	15064	0	
274	0	31294	15067	0	
275	0	31301	15071	0	
276	0	31298	15071	0	
277	0	31305	15070	0	
278	0	31304	15071	0	
279	0	31306	15071	0	
280	0	31309	15072	0	
281	0	31309	15074	0	
282	0	31308	15074	0	
283	0	31314	15074	0	
284	0	31314	15078	0	
285	0	31320	15079	98	
286	0	31314	15083	98	
287	0	31314	15082	98	
288	0	31317	15083	98	
289	0	31316	15080	98	
290	0	31309	15080	98	
291	0	31309	15082	98	
292	0	31306	15079	98	
293	0	31299	15081	98	
294	0	31303	15074	98	
295	0	31302	15079	98	
296	0	31302	15078	98	
297	0	31299	15077	98	
298	0	31301	15075	98	
299	0	31306	15076	98	
300	0	31309	15080	98	
301	0	31309	15077	98	
302	0	31311	15080	98	
303	0	31317	15085	98	
304	0	31313	15087	98	
305	0	31313	15086	98	
306	0	31318	15087	98	
307	0	31320	15091	98	
308	0	31326	15094	98	
309	0	31325	15091	98	
310	0	31331	15098	98	
311	0	31335	15096	98	
312	0	31340	15100	98	
313	0	31335	15102	98	
314	0	31339	15106	98	
315	0	31343	15109	98	
316	0	31348	15113	98	
317	0	31354	15110	98	
318	0	31354	15112	98	
319	0	31354	15116	98	
320	0	31351	15115	98	
321	0	31359	15115	98	
322	0	31355	15118	98	
323	0	31365	15119	98	
324	0	31362	15119	98	
325	0	31367	15122	98	
326	0	31364	15123	98	
327	0	31367	15127	98	
328	0	31363	15129	98	
329	0	31369	15129	98	
330	0	31369	15125	98	
331	0	31365	15126	98	
332	0	31367	15129	98	
333	0	31368	15133	98	
334	0	31369	15133	98	
335	0	31366	15134	98	
336	0	31371	15134	98	
337	0	31370	15137	98	
338	0	31373	15137	98	
339	0	31373	15138	98	
340	0	31374	15142	98	
341	0	31377	15144	98	
342	0	31371	15143	98	
343	0	31367	15134	98	
344	0	31360	15131	98	
345	0	31343	15121	98	
346	0	31332	15108	98	
347	0	31325	15097	98	
348	0	31310	15086	98	
349	0	31302	15078	98	
350	0	31298	15073	98	
351	0	31292	15067	98	
352	0	31288	15062	98	
353	0	31289	15059	98	
354	0	31292	15059	98	
355	0	31288	15055	98	
356	0	31295	15056	98	
357	0	31294	15055	98	
358	0	31300	15057	98	
359	0	31303	15057	98	
360	0	31305	15059	98	
361	0	31306	15058	98	
362	0	31306	15056	98	
363	0	31308	15061	98	
364	0	31307	15061	98	
365	0	31311	15064	98	
366	0	31314	15064	98	
367	0	31317	15067	98	
368	0	31314	15067	98	
369	0	31314	15068	98	
370	0	31321	15069	98	
371	0	31319	15074	98	
372	0	31322	15075	98	
373	0	31316	15074	98	
374	0	31315	15073	98	
375	0	31317	15074	98	
376	0	31315	15071	98	
377	0	31314	15076	98	
378	0	31320	15076	98	
379	0	31322	15076	98	
380	0	31321	15072	98	
381	0	31322	15074	98	
382	0	31315	15071	98	
383	0	31318	15072	98	
384	0	31321	15075	98	
385	0	31328	15076	98	
386	0	31326	15073	98	
387	0	31331	15078	98	
388	0	31335	15076	98	
389	0	31335	15077	98	
390	0	31337	15081	98	
391	0	31337	15085	98	
392	0	31344	15088	98	
393	0	31340	15086	98	
394	0	31350	15089	98	
395	0	31348	15087	98	
396	0	31347	15092	98	
397	0	31348	15094	98	
398	0	31355	15094	98	
399	0	31353	15099	98	
400	0	31358	15098	98	
401	0	31358	15102	98	
402	0	31361	15103	98	
403	0	31361	15101	98	
404	0	31360	15104	98	
405	0	31366	15105	98	
406	0	31365	15108	98	
407	0	31364	15108	98	
408	0	31365	15111	98	
409	0	31365	15110	98	
410	0	31365	15113	98	
411	0	31368	15114	98	
412	0	31369	15113	98	
413	0	31368	15114	98	
414	0	31376	15115	98	
415	0	31373	15117	98	
416	0	31373	15122	98	
417	0	31372	15124	98	
418	0	31375	15122	98	
419	0	31375	15124	98	
420	0	31372	15125	98	
421	0	31371	15123	98	
422	0	31374	15128	98	
423	0	31376	15123	98	
424	0	31374	15128	98	
425	0	31375	15126	98	
426	0	31374	15132	98	
427	0	31374	15128	98	
428	0	31377	15129	98	
429	0	31373	15129	98	
430	0	31361	15126	98	
431	0	31357	15113	98	
432	0	31339	15103	98	
433	0	31325	15095	98	
434	0	31319	15084	98	
435	0	31314	15073	98	
436	0	31305	15068	98	
437	0	31298	15063	98	
438	0	31299	15058	98	
439	0	31294	15058	98	
440	0	31302	15052	98	
441	0	31293	15051	98	
442	0	31299	15049	98	
443	0	31300	15052	98	
444	0	31308	15054	98	
445	0	31314	15055	98	
446	0	31312	15052	98	
447	0	31317	15055	98	
448	0	31322	15059	98	
449	0	31324	15064	98	
450	0	31330	15061	98	
451	0	31329	15064	98	
452	0	31329	15066	98	
453	0	31332	15069	98	
454	0	31335	15070	98	
455	0	31338	15073	98	
456	0	31340	15074	98	
457	0	31342	15076	98	
458	0	31339	15080	98	
459	0	31343	15078	98	
460	0	31339	15077	98	
461	0	31340	15077	98	
462	0	31338	15077	98	
463	0	31336	15075	98	
464	0	31335	15079	98	
465	0	31340	15073	98	
466	0	31333	15075	98	
467	0	31334	15076	98	
468	0	31334	15077	98	
469	0	31338	15076	98	
470	0	31340	15072	98	
471	0	31340	15080	98	
472	0	31343	15083	98	
473	0	31341	15081	98	
474	0	31349	15083	98	
475	0	31347	15083	98	
476	0	31350	15083	98	
477	0	31355	15086	98	
478	0	31356	15087	98	
479	0	31363	15089	98	
480	0	31365	15091	98	
481	0	31363	15089	98	
482	0	31367	15092	98	
483	0	31366	15096	98	
484	0	31367	15095	98	
485	0	31371	15095	98	
486	0	31373	15100	98	
487	0	31382	15104	98	
488	0	31377	15104	98	
489	0	31377	15102	98	
490	0	31383	15106	98	
491	0	31383	15107	98	
492	0	31383	15110	98	
493	0	31382	15111	98	
494	0	31380	15110	98	
495	0	31388	15113	98	
496	0	31387	15117	98	
497	0	31392	15113	98	
498	0	31386	15115	98	
499	0	31387	15119	98	
500	0	31385	15113	98	
501	0	31391	15117	98	
502	0	31386	15115	98	
503	0	31388	15118	98	
504	0	31384	15118	98	
505	0	31389	15119	98	
506	0	31389	15121	98	
507	0	31388	15124	98	
508	0	31390	15126	98	
509	0	31389	15126	98	
510	0	31388	15127	98	
511	0	31392	15124	98	
512	0	31388	15123	98	
513	0	31378	15117	98	
514	0	31367	15111	98	
515	0	31358	15101	98	
516	0	31345	15089	98	
517	0	31334	15077	98	
518	0	31321	15065	98	
519	0	31317	15056	98	
520	0	31312	15055	98	
521	0	31304	15043	98	
522	0	31299	15038	98	
523	0	31297	15038	98	
524	0	31299	15032	98	
525	0	31300	15035	98	
526	0	31300	15034	98	
527	0	31307	15034	98	
528	0	31313	15036	98	
529	0	31316	15034	98	
530	0	31319	15039	98	
531	0	31325	15039	98	
532	0	31320	15040	98	
533	0	31325	15042	98	
534	0	31328	15045	98	
535	0	31326	15048	98	
536	0	31328	15049	98	
537	0	31326	15051	98	
538	0	31332	15052	98	
539	0	31337	15051	98	
540	0	31333	15051	98	
541	0	31336	15057	98	
542	0	31336	15052	98	
543	0	31336	15054	98	
544	0	31337	15055	98	
545	0	31332	15056	98	
546	0	31339	15056	98	
547	0	31333	15054	98	
548	0	31334	15054	98	
549	0	31340	15052	98	
550	0	31334	15052	98	
551	0	31337	15053	98	
552	0	31338	15051	98	
553	0	31338	15056	98	
554	0	31348	15058	98	
555	0	31347	15059	98	
556	0	31348	15058	98	
557	0	31351	15059	98	
558	0	31356	15064	98	
559	0	31362	15068	98	
560	0	31364	15070	98	
561	0	31368	15070	98	
562	0	31372	15072	98	
563	0	31368	15074	98	
564	0	31377	15077	98	
565	0	31384	15078	98	
566	0	31385	15085	98	
567	0	31383	15085	98	
568	0	31390	15085	98	
569	0	31389	15088	98	
570	0	31387	15091	98	
571	0	31390	15093	98	
572	0	31393	15097	98	
573	0	31392	15095	98	
574	0	31389	15094	98	
575	0	31392	15098	98	
576	0	31393	15098	98	
577	0	31392	15098	98	
578	0	31388	15097	98	
579	0	31393	15098	98	
580	0	31397	15097	98	
581	0	31393	15102	98	
582	0	31393	15103	98	
583	0	31395	15102	98	
584	0	31399	15104	98	
585	0	31401	15110	98	
586	0	31397	15107	98	
587	0	31399	15107	98	
588	0	31402	15111	98	
589	0	31400	15109	98	
590	0	31405	15110	98	
591	0	31406	15114	98	
592	0	31405	15113	98	
593	0	31403	15115	98	
594	0	31405	15116	98	
595	0	31404	15117	98	
596	0	31405	15117	98	
597	0	31409	15119	98	
598	0	31407	15119	98	
599	0	31417	15120	98	
600	0	31414	15124	98	
601	0	31413	15122	98	
602	0	31414	15124	98	
603	0	31404	15123	98	
604	0	31400	15115	98	
605	0	31392	15108	98	
606	0	31373	15099	98	
607	0	31365	15085	98	
608	0	31345	15072	98	
609	0	31341	15062	98	
610	0	31334	15052	98	
611	0	31327	15045	98	
612	0	31321	15037	98	
613	0	31322	15037	98	
614	0	31317	15031	98	
615	0	31318	15031	98	
616	0	31325	15026	98	
617	0	31321	15028	98	
618	0	31322	15023	98	
619	0	31324	15028	98	
620	0	31331	15031	98	
621	0	31334	15030	98	
622	0	31344	15031	98	
623	0	31340	15035	98	
624	0	31350	15037	98	
625	0	31351	15039	98	
626	0	31350	15038	98	
627	0	31352	15040	98	
628	0	31352	15040	98	
629	0	31349	15044	98	
630	0	31354	15041	98	
631	0	31358	15041	98	
632	0	31351	15044	98	
633	0	31354	15047	98	
634	0	31356	15045	98	
635	0	31358	15049	98	
636	0	31359	15048	98	
637	0	31359	15049	98	
638	0	31359	15047	98	
639	0	31357	15049	98	
640	0	31359	15046	98	
641	0	31357	15043	98	
642	0	31362	15044	98	
643	0	31356	15044	98	
644	0	31362	15048	98	
645	0	31360	15049	98	
646	0	31360	15047	98	
647	0	31368	15046	98	
648	0	31364	15050	98	
649	0	31368	15051	98	
650	0	31372	15054	98	
651	0	31380	15057	98	
652	0	31380	15057	98	
653	0	31380	15060	98	
654	0	31388	15065	98	
655	0	31387	15065	98	
656	0	31397	15069	98	
657	0	31396	15071	98	
658	0	31399	15073	98	
659	0	31401	15075	98	
660	0	31406	15077	98	
661	0	31405	15081	98	
662	0	31413	15085	98	
663	0	31409	15085	98	
664	0	31411	15084	98	
665	0	31418	15088	98	
666	0	31417	15089	98	
667	0	31422	15093	98	
668	0	31424	15097	98	
669	0	31422	15094	98	
670	0	31423	15100	98	
671	0	31422	15096	98	
672	0	31423	15098	98	
673	0	31418	15101	98	
674	0	31424	15100	98	
675	0	31423	15101	98	
676	0	31427	15102	98	
677	0	31424	15103	98	
678	0	31425	15107	98	
679	0	31427	15107	98	
680	0	31426	15112	98	
681	0	31433	15107	98	
682	0	31430	15112	98	
683	0	31432	15114	98	
684	0	31434	15114	98	
685	0	31435	15117	98	
686	0	31432	15117	98	
687	0	31432	15118	98	
688	0	31437	15116	98	
689	0	31436	15121	98	
690	0	31439	15120	98	
691	0	31439	15124	98	
692	0	31447	15128	98	
693	0	31443	15128	98	
694	0	31440	15130	98	
695	0	31448	15132	98	
696	0	31445	15134	98	
697	0	31443	15131	98	
698	0	31437	15130	98	
699	0	31426	15117	98	
700	0	31416	15108	98	
701	0	31401	15098	98	
702	0	31389	15085	98	
703	0	31373	15073	98	
704	0	31364	15062	98	
705	0	31363	15056	98	
706	0	31353	15051	98	
707	0	31354	15047	98	
708	0	31348	15047	98	
709	0	31351	15041	98	
710	0	31355	15038	98	
711	0	31358	15042	98	
712	0	31363	15039	98	
713	0	31368	15041	98	
714	0	31370	15047	98	
715	0	31377	15047	98	
716	0	31385	15050	98	
717	0	31387	15052	98	
718	0	31384	15054	98	
719	0	31394	15055	98	
720	0	31398	15055	98	
721	0	31390	15058	98	
722	0	31399	15062	98	
723	0	31398	15065	98	
724	0	31404	15065	98	
725	0	31402	15064	98	
726	0	31400	15067	98	
727	0	31402	15067	98	
728	0	31404	15064	98	
729	0	31402	15068	98	
730	0	31396	15067	98	
731	0	31396	15065	98	
732	0	31400	15064	98	
733	0	31402	15067	98	
734	0	31397	15068	98	
735	0	31398	15069	98	
736	0	31402	15066	98	
737	0	31403	15064	98	
738	0	31403	15062	98	
739	0	31400	15064	98	
740	0	31404	15065	98	
741	0	31404	15066	98	
742	0	31409	15066	98	
743	0	31410	15068	98	
744	0	31411	15070	98	
745	0	31419	15073	98	
746	0	31423	15075	98	
747	0	31422	15077	98	
748	0	31422	15075	98	
749	0	31428	15083	98	
750	0	31433	15086	98	
751	0	31434	15084	98	
752	0	31438	15090	98	
753	0	31439	15087	98	
754	0	31439	15091	98	
755	0	31442	15092	98	
756	0	31441	15089	98	
757	0	31444	15095	98	
758	0	31445	15094	98	
759	0	31445	15096	98	
760	0	31443	15099	98	
761	0	31448	15099	98	
762	0	31450	15101	98	
763	0	31452	15099	98	
764	0	31451	15104	98	
765	0	31448	15104	98	
766	0	31453	15102	98	
767	0	31450	15103	98	
768	0	31450	15105	98	
769	0	31447	15107	98	
770	0	31454	15107	98	
771	0	31456	15110	98	
772	0	31456	15114	98	
773	0	31454	15115	98	
774	0	31462	15112	98	
775	0	31455	15119	98	
776	0	31460	15120	98	
777	0	31460	15119	98	
778	0	31464	15124	98	
779	0	31464	15121	98	
780	0	31463	15125	98	
781	0	31459	15125	98	
782	0	31460	15126	98	
783	0	31462	15129	98	
784	0	31466	15128	98	
785	0	31461	15127	98	
786	0	31465	15129	98	
787	0	31458	15129	98	
788	0	31454	15124	98	
789	0	31440	15117	98	
790	0	31435	15106	98	
791	0	31416	15093	98	
792	0	31398	15084	98	
793	0	31395	15072	98	
794	0	31387	15065	98	
795	0	31376	15057	98	
796	0	31376	15051	98	
797	0	31373	15047	98	
798	0	31369	15045	98	
799	0	31375	15046	98	
800	0	31378	15043	98	
801	0	31377	15041	98	
802	0	31385	15046	98	
803	0	31387	15048	98	
804	0	31392	15048	98	
805	0	31394	15051	98	
806	0	31403	15055	98	
807	0	31408	15055	98	
808	0	31412	15057	98	
809	0	31416	15059	98	
810	0	31415	15061	98	
811	0	31414	15061	98	
812	0	31419	15064	98	
813	0	31422	15068	98	
814	0	31421	15071	98	
815	0	31422	15070	98	
816	0	31426	15073	98	
817	0	31427	15073	98	
818	0	31426	15070	98	
819	0	31423	15073	98	
820	0	31423	15071	98	
821	0	31422	15070	98	
822	0	31421	15068	98	
823	0	31416	15068	98	
824	0	31420	15067	98	
825	0	31415	15071	98	
826	0	31418	15071	98	
827	0	31422	15069	98	
828	0	31420	15072	98	
829	0	31430	15073	98	
830	0	31427	15079	98	
831	0	31434	15080	98	
832	0	31438	15080	98	
833	0	31441	15084	98	
834	0	31439	15086	98	
835	0	31445	15088	98	
836	0	31446	15088	98	
837	0	31450	15090	98	
838	0	31453	15091	98	
839	0	31453	15094	98	
840	0	31455	15096	98	
841	0	31462	15100	98	
842	0	31463	15102	98	
843	0	31464	15102	98	
844	0	31468	15105	98	
845	0	31467	15106	98	
846	0	31471	15108	98	
847	0	31472	15105	98	
848	0	31475	15108	98	
849	0	31478	15109	98	
850	0	31474	15113	98	
851	0	31476	15113	98	
852	0	31478	15111	98	
853	0	31481	15116	98	
854	0	31474	15114	98	
855	0	31479	15116	98	
856	0	31482	15117	98	
857	0	31483	15121	98	
858	0	31485	15121	98	
859	0	31484	15125	98	
860	0	31488	15125	98	
861	0	31494	15131	98	
862	0	31491	15132	98	
863	0	31498	15133	98	
864	0	31500	15139	98	
865	0	31500	15142	98	
866	0	31502	15141	98	
867	0	31507	15142	98	
868	0	31503	15148	98	
869	0	31504	15144	98	
870	0	31502	15147	98	
871	0	31505	15145	98	
872	0	31509	15149	98	
873	0	31505	15153	98	
874	0	31504	15152	98	
875	0	31507	15154	98	
876	0	31505	15151	98	
877	0	31506	15156	98	
878	0	31501	15149	98	
879	0	31497	15144	98	
880	0	31481	15137	98	
881	0	31467	15124	98	
882	0	31453	15111	98	
883	0	31438	15101	98	
884	0	31427	15091	98	
885	0	31421	15079	97	
886	0	31415	15073	97	
887	0	31409	15067	97	
888	0	31410	15059	97	
889	0	31412	15061	97	
890	0	31411	15061	97	
891	0	31408	15056	97	
892	0	31413	15058	97	
893	0	31414	15060	97	
894	0	31422	15064	97	
895	0	31434	15064	97	
896	0	31434	15069	97	
897	0	31444	15072	97	
898	0	31448	15072	97	
899	0	31448	15073	97	
900	0	31449	15071	97	
901	0	31449	15076	97	
902	0	31449	15079	97	
903	0	31452	15080	97	
904	0	31456	15082	97	
905	0	31454	15085	97	
906	0	31458	15081	97	
907	0	31458	15085	97	
908	0	31453	15084	97	
909	0	31458	15084	97	
910	0	31459	15083	97	
911	0	31456	15085	97	
912	0	31459	15086	97	
913	0	31451	15085	97	
914	0	31455	15084	97	
915	0	31454	15083	97	
916	0	31453	15082	97	
917	0	31450	15078	97	
918	0	31455	15079	97	
919	0	31452	15083	97	
920	0	31451	15078	97	
921	0	31453	15081	97	
922	0	31457	15083	97	
923	0	31456	15082	97	
924	0	31464	15087	97	
925	0	31463	15091	97	
926	0	31473	15093	97	
927	0	31470	15092	97	
928	0	31471	15095	97	
929	0	31476	15097	97	
930	0	31478	15100	97	
931	0	31481	15102	97	
932	0	31486	15105	97	
933	0	31485	15108	97	
934	0	31488	15107	97	
935	0	31491	15107	97	
936	0	31496	15115	97	
937	0	31493	15115	97	
938	0	31501	15113	97	
939	0	31500	15119	97	
940	0	31501	15121	97	
941	0	31501	15120	97	
942	0	31497	15122	97	
943	0	31501	15119	97	
944	0	31500	15126	97	
945	0	31503	15128	97	
946	0	31506	15129	97	
947	0	31502	15127	97	
948	0	31508	15131	97	
949	0	31512	15131	97	
950	0	31511	15135	97	
951	0	31508	15134	97	
952	0	31509	15134	97	
953	0	31514	15135	97	
954	0	31511	15139	97	
955	0	31513	15141	97	
956	0	31511	15141	97	
957	0	31513	15142	97	
958	0	31514	15143	97	
959	0	31518	15147	97	
960	0	31519	15147	97	
961	0	31517	15146	97	
962	0	31523	15154	97	
963	0	31524	15152	97	
964	0	31525	15157	97	
965	0	31527	15160	97	
966	0	31528	15161	97	
967	0	31527	15161	97	
968	0	31522	15160	97	
969	0	31516	15155	97	
970	0	31509	15148	97	
971	0	31491	15135	97	
972	0	31477	15120	97	
973	0	31470	15113	97	
974	0	31459	15101	97	
975	0	31444	15092	97	
976	0	31444	15088	97	
977	0	31441	15083	97	
978	0	31435	15077	97	
979	0	31433	15074	97	
980	0	31439	15074	97	
981	0	31440	15074	97	
982	0	31443	15076	97	
983	0	31446	15078	97	
984	0	31451	15078	97	
985	0	31451	15080	97	
986	0	31459	15083	97	
987	0	31459	15083	97	
988	0	31467	15090	97	
989	0	31474	15092	97	
990	0	31474	15091	97	
991	0	31480	15095	97	
992	0	31486	15102	97	
993	0	31492	15104	97	
994	0	31489	15108	97	
995	0	31499	15113	97	
996	0	31501	15112	97	
997	0	31502	15114	97	
998	0	31499	15114	97	
999	0	31505	15116	97	
1000	0	31502	15114	97	
1001	0	31500	15118	97	
1002	0	31495	15117	97	
1003	0	31496	15113	97	
1004	0	31500	15113	97	
1005	0	31497	15114	97	
1006	0	31494	15114	97	
1007	0	31492	15115	97	
1008	0	31493	15113	97	
1009	0	31493	15113	97	
1010	0	31497	15113	97	
1011	0	31492	15115	97	
1012	0	31492	15111	97	
1013	0	31498	15111	97	
1014	0	31496	15111	97	
1015	0	31499	15111	97	
1016	0	31498	15117	97	
1017	0	31500	15119	97	
1018	0	31509	15122	97	
1019	0	31513	15123	97	
1020	0	31516	15125	97	
1021	0	31515	15128	97	
1022	0	31519	15130	97	
1023	0	31520	15136	97	
1024	0	31523	15134	97	
1025	0	31523	15135	97	
1026	0	31524	15141	97	
1027	0	31532	15142	97	
1028	0	31530	15142	97	
1029	0	31533	15144	97	
1030	0	31530	15145	97	
1031	0	31536	15148	97	
1032	0	31535	15150	97	
1033	0	31540	15153	97	
1034	0	31539	15153	97	
1035	0	31542	15155	97	
1036	0	31540	15150	97	
1037	0	31543	15154	97	
1038	0	31539	15160	97	
1039	0	31547	15162	97	
1040	0	31547	15164	97	
1041	0	31543	15165	97	
1042	0	31542	15166	97	
1043	0	31547	15165	97	
1044	0	31546	15168	97	
1045	0	31547	15168	97	
1046	0	31545	15167	97	
1047	0	31551	15170	97	
1048	0	31551	15173	97	
1049	0	31554	15173	97	
1050	0	31554	15176	97	
1051	0	31555	15183	97	
1052	0	31557	15181	97	
1053	0	31552	15177	97	
1054	0	31549	15174	97	
1055	0	31538	15171	97	
1056	0	31529	15159	97	
1057	0	31520	15147	97	
1058	0	31507	15135	97	
1059	0	31498	15128	97	
1060	0	31484	15119	97	
1061	0	31478	15110	97	
1062	0	31478	15106	97	
1063	0	31474	15102	97	
1064	0	31469	15099	97	
1065	0	31473	15100	97	
1066	0	31468	15098	97	
1067	0	31475	15099	97	
1068	0	31483	15100	97	
1069	0	31480	15098	97	
1070	0	31485	15099	97	
1071	0	31486	15104	97	
1072	0	31490	15105	97	
1073	0	31497	15110	97	
1074	0	31499	15108	97	
1075	0	31503	15115	97	
1076	0	31508	15116	97	
1077	0	31503	15115	97	
1078	0	31509	15122	97	
1079	0	31515	15120	97	
1080	0	31510	15122	97	
1081	0	31518	15123	97	
1082	0	31514	15121	97	
1083	0	31512	15125	97	
1084	0	31514	15125	97	
1085	0	31513	15127	97	
1086	0	31507	15124	97	
1087	0	31511	15125	97	
1088	0	31508	15124	97	
1089	0	31506	15125	97	
1090	0	31506	15123	97	
1091	0	31508	15126	97	
1092	0	31506	15124	97	
1093	0	31507	15123	97	
1094	0	31501	15125	97	
1095	0	31501	15124	97	
1096	0	31497	15119	97	
1097	0	31504	15121	97	
1098	0	31501	15120	97	
1099	0	31504	15123	97	
1100	0	31499	15124	97	
1101	0	31503	15123	97	
1102	0	31505	15123	97	
1103	0	31509	15128	97	
1104	0	31508	15129	97	
1105	0	31507	15132	97	
1106	0	31516	15132	97	
1107	0	31519	15136	97	
1108	0	31520	15136	97	
1109	0	31526	15141	97	
1110	0	31523	15141	97	
1111	0	31529	15142	97	
1112	0	31527	15149	97	
1113	0	31534	15148	97	
1114	0	31537	15151	97	
1115	0	31538	15155	97	
1116	0	31541	15158	97	
1117	0	31540	15159	97	
1118	0	31541	15160	97	
1119	0	31542	15159	97	
1120	0	31553	15164	97	
1121	0	31549	15167	97	
1122	0	31547	15163	97	
1123	0	31550	15165	97	
1124	0	31545	15166	97	
1125	0	31549	15166	97	
1126	0	31544	15163	97	
1127	0	31545	15167	97	
1128	0	31546	15167	97	
1129	0	31548	15170	97	
1130	0	31549	15173	97	
1131	0	31557	15176	97	
1132	0	31557	15179	97	
1133	0	31556	15179	97	
1134	0	31560	15176	97	
1135	0	31555	15179	97	
1136	0	31546	15167	97	
1137	0	31528	15158	97	
1138	0	31519	15145	97	
1139	0	31503	15135	97	
1140	0	31488	15121	97	
1141	0	31481	15106	97	
1142	0	31465	15103	97	
1143	0	31462	15092	97	
1144	0	31468	15093	97	
1145	0	31461	15087	97	
1146	0	31457	15086	97	
1147	0	31462	15084	97	
1148	0	31464	15085	97	
1149	0	31470	15086	97	
1150	0	31474	15083	97	
1151	0	31475	15088	97	
1152	0	31479	15091	97	
1153	0	31485	15091	97	
1154	0	31484	15094	97	
1155	0	31492	15097	97	
1156	0	31493	15096	97	
1157	0	31493	15101	97	
1158	0	31496	15102	97	
1159	0	31499	15103	97	
1160	0	31504	15103	97	
1161	0	31503	15104	97	
1162	0	31506	15106	97	
1163	0	31505	15109	97	
1164	0	31502	15111	97	
1165	0	31505	15111	97	
1166	0	31499	15110	97	
1167	0	31496	15108	97	
1168	0	31497	15106	97	
1169	0	31492	15107	97	
1170	0	31493	15103	97	
1171	0	31490	15105	97	
1172	0	31491	15103	97	
1173	0	31487	15104	97	
1174	0	31486	15104	97	
1175	0	31491	15103	97	
1176	0	31487	15100	97	
1177	0	31487	15100	97	
1178	0	31489	15104	97	
1179	0	31492	15105	97	
1180	0	31495	15107	97	
1181	0	31495	15108	97	
1182	0	31502	15113	97	
1183	0	31500	15109	97	
1184	0	31510	15113	97	
1185	0	31508	15117	98	
1186	0	31514	15122	98	
1187	0	31514	15122	98	
1188	0	31519	15122	98	
1189	0	31522	15126	98	
1190	0	31525	15126	98	
1191	0	31523	15130	98	
1192	0	31524	15130	98	
1193	0	31527	15134	98	
1194	0	31526	15137	98	
1195	0	31528	15139	98	
1196	0	31533	15139	98	
1197	0	31531	15137	98	
1198	0	31535	15143	98	
1199	0	31532	15141	98	
1200	0	31535	15144	98	
1201	0	31538	15148	98	
1202	0	31538	15152	98	
1203	0	31543	15151	98	
1204	0	31541	15153	98	
1205	0	31544	15154	98	
1206	0	31541	15152	98	
1207	0	31539	15154	98	
1208	0	31540	15156	98	
1209	0	31542	15155	98	
1210	0	31546	15156	98	
1211	0	31546	15159	98	
1212	0	31549	15160	98	
1213	0	31546	15161	98	
1214	0	31546	15156	98	
1215	0	31543	15157	98	
1216	0	31538	15157	98	
1217	0	31535	15154	98	
1218	0	31525	15149	98	
1219	0	31518	15138	98	
1220	0	31499	15123	98	
1221	0	31488	15113	98	
1222	0	31470	15100	98	
1223	0	31462	15089	98	
1224	0	31450	15076	98	
1225	0	31443	15070	98	
1226	0	31438	15062	98	
1227	0	31428	15058	98	
1228	0	31427	15054	98	
1229	0	31425	15052	98	
1230	0	31423	15053	98	
1231	0	31428	15051	98	
1232	0	31431	15051	98	
1233	0	31439	15052	98	
1234	0	31444	15054	98	
1235	0	31450	15061	98	
1236	0	31455	15058	98	
1237	0	31458	15063	98	
1238	0	31454	15067	98	
1239	0	31459	15065	98	
1240	0	31465	15066	98	
1241	0	31462	15067	98	
1242	0	31454	15067	98	
1243	0	31457	15067	98	
1244	0	31454	15068	98	
1245	0	31455	15068	98	
1246	0	31457	15071	98	
1247	0	31458	15071	98	
1248	0	31458	15074	98	
1249	0	31460	15070	98	
1250	0	31460	15075	98	
1251	0	31456	15072	98	
1252	0	31461	15077	98	
1253	0	31459	15077	98	
1254	0	31463	15077	98	
1255	0	31460	15074	98	
1256	0	31458	15076	98	
1257	0	31462	15079	98	
1258	0	31463	15077	98	
1259	0	31466	15082	98	
1260	0	31472	15079	98	
1261	0	31469	15084	98	
1262	0	31476	15086	98	
1263	0	31483	15086	98	
1264	0	31485	15090	98	
1265	0	31482	15091	98	
1266	0	31490	15093	98	
1267	0	31487	15096	98	
1268	0	31494	15096	98	
1269	0	31491	15099	98	
1270	0	31496	15100	98	
1271	0	31499	15103	98	
1272	0	31500	15106	98	
1273	0	31498	15106	98	
1274	0	31501	15104	98	
1275	0	31505	15108	98	
1276	0	31508	15111	98	
1277	0	31510	15111	98	
1278	0	31512	15113	98	
1279	0	31508	15116	98	
1280	0	31510	15120	98	
1281	0	31512	15118	98	
1282	0	31511	15118	98	
1283	0	31516	15120	98	
1284	0	31516	15123	98	
1285	0	31513	15122	98	
1286	0	31516	15124	98	
1287	0	31517	15125	98	
1288	0	31520	15124	98	
1289	0	31521	15128	98	
1290	0	31525	15131	98	
1291	0	31519	15130	98	
1292	0	31519	15126	98	
1293	0	31516	15132	98	
1294	0	31516	15134	98	
1295	0	31522	15135	98	
1296	0	31523	15135	98	
1297	0	31520	15136	98	
1298	0	31520	15135	98	
1299	0	31520	15141	98	
1300	0	31530	15139	98	
1301	0	31529	15142	98	
1302	0	31528	15144	98	
1303	0	31524	15142	98	
1304	0	31520	15136	98	
1305	0	31507	15129	98	
1306	0	31493	15121	98	
1307	0	31484	15107	98	
1308	0	31472	15095	98	
1309	0	31463	15086	98	
1310	0	31455	15074	98	
1311	0	31446	15071	98	
1312	0	31445	15066	98	
1313	0	31435	15060	98	
1314	0	31433	15057	98	
1315	0	31436	15052	98	
1316	0	31437	15049	98	
1317	0	31435	15053	98	
1318	0	31443	15051	98	
1319	0	31448	15055	98	
1320	0	31451	15058	98	
1321	0	31448	15058	98	
1322	0	31455	15062	98	
1323	0	31463	15064	98	
1324	0	31461	15066	98	
1325	0	31465	15067	98	
1326	0	31463	15066	98	
1327	0	31462	15067	98	
1328	0	31467	15070	98	
1329	0	31467	15069	98	
1330	0	31466	15072	98	
1331	0	31469	15070	98	
1332	0	31470	15071	98	
1333	0	31471	15071	98	
1334	0	31472	15070	98	
1335	0	31467	15075	98	
1336	0	31475	15074	98	
1337	0	31473	15072	98	
1338	0	31475	15075	98	
1339	0	31478	15075	98	
1340	0	31470	15076	98	
1341	0	31475	15077	98	
1342	0	31477	15078	98	
1343	0	31479	15081	98	
1344	0	31483	15081	98	
1345	0	31482	15082	98	
1346	0	31484	15085	98	
1347	0	31490	15084	98	
1348	0	31494	15086	98	
1349	0	31493	15086	98	
1350	0	31494	15089	98	
1351	0	31500	15095	98	
1352	0	31500	15096	98	
1353	0	31505	15099	98	
1354	0	31507	15097	98	
1355	0	31507	15101	98	
1356	0	31508	15101	98	
1357	0	31513	15099	98	
1358	0	31508	15101	98	
1359	0	31508	15106	98	
1360	0	31512	15104	98	
1361	0	31516	15108	98	
1362	0	31519	15112	98	
1363	0	31520	15108	98	
1364	0	31517	15112	98	
1365	0	31522	15115	98	
1366	0	31520	15118	98	
1367	0	31519	15120	98	
1368	0	31527	15121	98	
1369	0	31521	15118	98	
1370	0	31527	15121	98	
1371	0	31528	15122	98	
1372	0	31527	15127	98	
1373	0	31529	15128	98	
1374	0	31530	15127	98	
1375	0	31535	15129	98	
1376	0	31530	15131	98	
1377	0	31532	15133	98	
1378	0	31534	15137	98	
1379	0	31541	15136	98	
1380	0	31539	15137	98	
1381	0	31538	15135	98	
1382	0	31541	15138	98	
1383	0	31542	15142	98	
1384	0	31538	15141	98	
1385	0	31536	15140	98	
1386	0	31539	15139	98	
1387	0	31540	15142	98	
1388	0	31533	15139	98	
1389	0	31533	15139	98	
1390	0	31530	15137	98	
1391	0	31524	15133	98	
1392	0	31524	15137	98	
1393	0	31524	15136	98	
1394	0	31529	15142	98	
1395	0	31530	15148	98	
1396	0	31534	15149	98	
1397	0	31541	15153	98	
1398	0	31533	15145	98	
1399	0	31519	15145	98	
1400	0	31510	15127	98	
1401	0	31494	15114	98	
1402	0	31473	15097	98	
1403	0	31460	15086	98	
1404	0	31452	15073	98	
1405	0	31439	15064	98	
1406	0	31436	15057	98	
1407	0	31435	15047	98	
1408	0	31424	15041	98	
1409	0	31431	15042	98	
1410	0	31426	15040	98	
1411	0	31428	15042	98	
1412	0	31435	15042	98	
1413	0	31446	15045	98	
1414	0	31449	15049	98	
1415	0	31459	15051	98	
1416	0	31464	15054	98	
1417	0	31470	15058	98	
1418	0	31474	15064	98	
1419	0	31479	15067	98	
1420	0	31479	15068	98	
1421	0	31482	15073	98	
1422	0	31483	15072	98	
1423	0	31484	15073	98	
1424	0	31488	15075	98	
1425	0	31490	15074	98	
1426	0	31491	15074	98	
1427	0	31491	15073	98	
1428	0	31486	15072	98	
1429	0	31484	15070	98	
1430	0	31480	15069	98	
1431	0	31469	15059	98	
1432	0	31465	15057	98	
1433	0	31461	15052	98	
1434	0	31460	15049	98	
1435	0	31456	15047	98	
1436	0	31452	15044	98	
1437	0	31453	15040	98	
1438	0	31454	15046	98	
1439	0	31445	15038	98	
1440	0	31445	15036	98	
1441	0	31443	15038	98	
1442	0	31447	15039	98	
1443	0	31449	15040	98	
1444	0	31453	15040	98	
1445	0	31455	15044	98	
1446	0	31464	15051	98	
1447	0	31467	15053	98	
1448	0	31476	15062	98	
1449	0	31477	15059	98	
1450	0	31484	15066	98	
1451	0	31484	15067	98	
1452	0	31494	15071	98	
1453	0	31492	15074	98	
1454	0	31501	15079	98	
1455	0	31497	15078	98	
1456	0	31506	15088	98	
1457	0	31514	15089	98	
1458	0	31513	15089	98	
1459	0	31521	15097	98	
1460	0	31522	15100	98	
1461	0	31524	15100	98	
1462	0	31528	15105	98	
1463	0	31526	15105	98	
1464	0	31529	15109	98	
1465	0	31536	15112	98	
1466	0	31529	15109	98	
1467	0	31533	15110	98	
1468	0	31536	15116	98	
1469	0	31537	15113	98	
1470	0	31534	15115	98	
1471	0	31537	15116	98	
1472	0	31534	15120	98	
1473	0	31538	15120	98	
1474	0	31540	15122	98	
1475	0	31541	15125	98	
1476	0	31544	15127	98	
1477	0	31543	15127	98	
1478	0	31538	15127	98	
1479	0	31541	15127	98	
1480	0	31538	15131	98	
1481	0	31540	15128	98	
1482	0	31544	15134	98	
1483	0	31549	15133	98	
1484	0	31542	15137	98	
1485	0	31547	15137	98	
1486	0	31548	15139	98	
1487	0	31549	15143	98	
1488	0	31554	15145	98	
1489	0	31557	15149	98	
1490	0	31558	15149	98	
1491	0	31559	15152	98	
1492	0	31559	15151	98	
1493	0	31556	15149	98	
1494	0	31551	15148	98	
1495	0	31534	15139	98	
1496	0	31527	15129	98	
1497	0	31512	15114	98	
1498	0	31501	15103	98	
1499	0	31489	15099	98	
1500	0	31486	15086	98	
1501	0	31479	15081	98	
1502	0	31473	15073	98	
1503	0	31470	15069	98	
1504	0	31464	15064	98	
1505	0	31467	15060	98	
1506	0	31466	15059	98	
1507	0	31474	15059	98	
1508	0	31468	15058	98	
1509	0	31479	15061	98	
1510	0	31479	15064	98	
1511	0	31484	15067	98	
1512	0	31496	15069	98	
1513	0	31496	15072	98	
1514	0	31498	15074	98	
1515	0	31499	15074	98	
1516	0	31500	15080	98	
1517	0	31508	15079	98	
1518	0	31510	15084	98	
1519	0	31510	15080	98	
1520	0	31508	15081	98	
1521	0	31506	15084	98	
1522	0	31504	15085	98	
1523	0	31503	15085	98	
1524	0	31502	15085	98	
1525	0	31506	15086	98	
1526	0	31499	15084	98	
1527	0	31501	15086	98	
1528	0	31502	15081	98	
1529	0	31500	15080	98	
1530	0	31500	15077	98	
1531	0	31499	15076	98	
1532	0	31499	15077	98	
1533	0	31502	15076	98	
1534	0	31499	15077	98	
1535	0	31501	15078	98	
1536	0	31496	15074	98	
1537	0	31503	15077	98	
1538	0	31506	15080	98	
1539	0	31509	15085	98	
1540	0	31514	15089	98	
1541	0	31516	15086	98	
1542	0	31523	15090	98	
1543	0	31524	15089	98	
1544	0	31525	15094	98	
1545	0	31523	15097	98	
1546	0	31533	15099	98	
1547	0	31535	15100	98	
1548	0	31538	15102	98	
1549	0	31538	15103	98	
1550	0	31539	15107	98	
1551	0	31540	15110	98	
1552	0	31547	15112	98	
1553	0	31547	15114	98	
1554	0	31556	15117	98	
1555	0	31552	15120	98	
1556	0	31561	15123	98	
1557	0	31560	15126	98	
1558	0	31560	15125	98	
1559	0	31561	15127	98	
1560	0	31567	15134	98	
1561	0	31569	15132	98	
1562	0	31566	15133	98	
1563	0	31567	15136	98	
1564	0	31570	15135	98	
1565	0	31562	15136	98	
1566	0	31567	15135	98	
1567	0	31559	15132	98	
1568	0	31559	15132	98	
1569	0	31556	15130	98	
1570	0	31551	15127	98	
1571	0	31556	15131	98	
1572	0	31553	15128	98	
1573	0	31553	15128	98	
1574	0	31550	15129	98	
1575	0	31552	15129	98	
1576	0	31553	15135	98	
1577	0	31551	15133	98	
1578	0	31550	15131	98	
1579	0	31545	15128	98	
1580	0	31536	15120	98	
1581	0	31525	15114	98	
1582	0	31504	15099	98	
1583	0	31489	15088	98	
1584	0	31476	15073	98	
1585	0	31467	15065	98	
1586	0	31456	15055	98	
1587	0	31450	15047	98	
1588	0	31444	15036	98	
1589	0	31440	15032	98	
1590	0	31434	15027	98	
1591	0	31430	15018	98	
1592	0	31432	15021	98	
1593	0	31433	15021	98	
1594	0	31437	15018	98	
1595	0	31441	15019	98	
1596	0	31447	15022	98	
1597	0	31449	15024	98	
1598	0	31451	15024	98	
1599	0	31451	15025	98	
1600	0	31458	15029	98	
1601	0	31456	15031	98	
1602	0	31457	15033	98	
1603	0	31458	15037	98	
1604	0	31461	15034	98	
1605	0	31464	15034	98	
1606	0	31466	15036	98	
1607	0	31470	15041	98	
1608	0	31470	15041	98	
1609	0	31469	15046	98	
1610	0	31471	15042	98	
1611	0	31471	15047	98	
1612	0	31478	15046	98	
1613	0	31473	15046	98	
1614	0	31481	15048	98	
1615	0	31479	15045	98	
1616	0	31475	15046	98	
1617	0	31484	15045	98	
1618	0	31479	15048	98	
1619	0	31477	15048	98	
1620	0	31480	15050	98	
1621	0	31481	15050	98	
1622	0	31485	15051	98	
1623	0	31491	15054	98	
1624	0	31493	15055	98	
1625	0	31492	15056	98	
1626	0	31496	15057	98	
1627	0	31497	15057	98	
1628	0	31504	15061	98	
1629	0	31503	15064	98	
1630	0	31514	15067	98	
1631	0	31507	15065	98	
1632	0	31513	15067	98	
1633	0	31510	15070	98	
1634	0	31509	15068	98	
1635	0	31515	15070	98	
1636	0	31513	15075	98	
1637	0	31516	15079	98	
1638	0	31517	15076	98	
1639	0	31517	15082	98	
1640	0	31521	15078	98	
1641	0	31520	15086	98	
1642	0	31523	15085	98	
1643	0	31527	15090	98	
1644	0	31532	15094	98	
1645	0	31533	15093	98	
1646	0	31537	15096	98	
1647	0	31538	15099	98	
1648	0	31538	15104	98	
1649	0	31540	15104	98	
1650	0	31545	15111	98	
1651	0	31543	15109	98	
1652	0	31546	15110	98	
1653	0	31547	15112	98	
1654	0	31548	15111	98	
1655	0	31544	15118	98	
1656	0	31546	15115	98	
1657	0	31545	15115	98	
1658	0	31544	15115	98	
1659	0	31543	15113	98	
1660	0	31544	15113	98	
1661	0	31548	15117	98	
1662	0	31541	15116	98	
1663	0	31544	15119	98	
1664	0	31541	15123	98	
1665	0	31548	15123	98	
1666	0	31551	15123	98	
1667	0	31541	15124	98	
1668	0	31538	15115	98	
1669	0	31527	15108	98	
1670	0	31511	15095	98	
1671	0	31497	15084	98	
1672	0	31486	15073	98	
1673	0	31477	15061	98	
1674	0	31470	15054	98	
1675	0	31460	15046	98	
1676	0	31459	15039	98	
1677	0	31455	15035	98	
1678	0	31456	15035	98	
1679	0	31452	15030	98	
1680	0	31459	15032	98	
1681	0	31465	15033	98	
1682	0	31463	15034	98	
1683	0	31471	15036	98	
1684	0	31475	15038	98	
1685	0	31485	15041	98	
1686	0	31484	15041	98	
1687	0	31490	15047	98	
1688	0	31488	15046	98	
1689	0	31489	15048	98	
1690	0	31492	15043	98	
1691	0	31492	15051	98	
1692	0	31487	15047	98	
1693	0	31492	15051	98	
1694	0	31491	15050	98	
1695	0	31493	15054	98	
1696	0	31495	15054	98	
1697	0	31493	15054	98	
1698	0	31490	15056	98	
1699	0	31492	15056	98	
1700	0	31493	15056	98	
1701	0	31494	15058	98	
1702	0	31491	15051	98	
1703	0	31493	15053	98	
1704	0	31489	15053	98	
1705	0	31485	15051	98	
1706	0	31488	15051	98	
1707	0	31496	15053	98	
1708	0	31499	15057	98	
1709	0	31506	15059	98	
1710	0	31504	15060	98	
1711	0	31516	15068	98	
1712	0	31517	15069	98	
1713	0	31521	15078	98	
1714	0	31533	15081	98	
1715	0	31533	15084	98	
1716	0	31547	15089	98	
1717	0	31542	15091	98	
1718	0	31549	15099	98	
1719	0	31559	15101	98	
1720	0	31563	15108	98	
1721	0	31571	15110	98	
1722	0	31571	15112	98	
1723	0	31577	15115	98	
1724	0	31571	15120	98	
1725	0	31575	15121	98	
1726	0	31581	15121	98	
1727	0	31574	15124	98	
1728	0	31577	15123	98	
1729	0	31576	15124	98	
1730	0	31574	15119	98	
1731	0	31577	15123	98	
1732	0	31574	15124	98	
1733	0	31575	15128	98	
1734	0	31577	15129	98	
1735	0	31582	15129	98	
1736	0	31578	15131	98	
1737	0	31581	15132	98	
1738	0	31584	15136	98	
1739	0	31584	15138	98	
1740	0	31591	15136	98	
1741	0	31587	15139	98	
1742	0	31586	15141	98	
1743	0	31588	15142	98	
1744	0	31588	15144	98	
1745	0	31591	15144	98	
1746	0	31593	15146	98	
1747	0	31594	15148	98	
1748	0	31593	15151	98	
1749	0	31591	15149	98	
1750	0	31592	15152	98	
1751	0	31594	15150	98	
1752	0	31594	15156	98	
1753	0	31594	15156	98	
1754	0	31595	15159	98	
1755	0	31596	15160	98	
1756	0	31594	15164	98	
1757	0	31596	15163	98	
1758	0	31597	15166	98	
1759	0	31595	15160	98	
1760	0	31583	15154	98	
1761	0	31573	15145	98	
1762	0	31558	15137	98	
1763	0	31547	15126	98	
1764	0	31534	15114	98	
1765	0	31534	15109	98	
1766	0	31522	15098	98	
1767	0	31523	15095	98	
1768	0	31521	15090	98	
1769	0	31515	15086	98	
1770	0	31516	15082	98	
1771	0	31511	15080	98	
1772	0	31519	15083	98	
1773	0	31522	15083	98	
1774	0	31524	15080	98	
1775	0	31530	15084	98	
1776	0	31536	15087	98	
1777	0	31536	15086	98	
1778	0	31542	15089	98	
1779	0	31543	15091	98	
1780	0	31550	15091	98	
1781	0	31546	15095	98	
1782	0	31554	15096	98	
1783	0	31554	15100	98	
1784	0	31556	15106	98	
1785	0	31561	15107	98	
1786	0	31561	15109	98	
1787	0	31563	15109	98	
1788	0	31569	15114	98	
1789	0	31564	15114	98	
1790	0	31567	15113	98	
1791	0	31557	15114	98	
1792	0	31558	15113	98	
1793	0	31561	15112	98	
1794	0	31557	15112	98	
1795	0	31559	15109	98	
1796	0	31551	15113	98	
1797	0	31556	15107	98	
1798	0	31558	15108	98	
1799	0	31556	15110	98	
1800	0	31554	15109	98	
1801	0	31556	15109	98	
1802	0	31561	15109	98	
1803	0	31560	15113	98	
1804	0	31561	15114	98	
1805	0	31568	15115	98	
1806	0	31565	15116	98	
1807	0	31574	15117	98	
1808	0	31574	15120	98	
1809	0	31575	15125	98	
1810	0	31575	15124	98	
1811	0	31578	15124	98	
1812	0	31581	15126	98	
1813	0	31579	15132	98	
1814	0	31580	15133	98	
1815	0	31587	15135	98	
1816	0	31588	15141	98	
1817	0	31595	15140	98	
1818	0	31596	15145	98	
1819	0	31598	15146	98	
1820	0	31601	15153	98	
1821	0	31606	15150	98	
1822	0	31606	15152	98	
1823	0	31602	15154	98	
1824	0	31605	15158	98	
1825	0	31603	15157	98	
1826	0	31606	15159	98	
1827	0	31606	15160	98	
1828	0	31608	15160	98	
1829	0	31612	15160	98	
1830	0	31614	15163	98	
1831	0	31610	15163	98	
1832	0	31614	15164	98	
1833	0	31613	15166	98	
1834	0	31618	15166	98	
1835	0	31616	15170	98	
1836	0	31617	15172	98	
1837	0	31620	15174	98	
1838	0	31623	15177	98	
1839	0	31623	15176	98	
1840	0	31621	15181	98	
1841	0	31626	15181	98	
1842	0	31633	15184	98	
1843	0	31634	15188	98	
1844	0	31628	15188	98	
1845	0	31631	15190	98	
1846	0	31629	15190	98	
1847	0	31625	15185	98	
1848	0	31613	15172	98	
1849	0	31600	15166	98	
1850	0	31590	15157	98	
1851	0	31578	15146	98	
1852	0	31570	15136	98	
1853	0	31562	15128	98	
1854	0	31554	15125	98	
1855	0	31548	15119	98	
1856	0	31551	15117	98	
1857	0	31547	15116	98	
1858	0	31549	15116	98	
1859	0	31554	15112	98	
1860	0	31553	15115	98	
1861	0	31563	15117	98	
1862	0	31563	15118	98	
1863	0	31567	15120	98	
1864	0	31570	15123	98	
1865	0	31573	15125	98	
1866	0	31581	15126	98	
1867	0	31581	15130	98	
1868	0	31589	15135	98	
1869	0	31584	15136	98	
1870	0	31591	15136	98	
1871	0	31589	15141	98	
1872	0	31594	15142	98	
1873	0	31593	15143	98	
1874	0	31593	15144	98	
1875	0	31592	15147	98	
1876	0	31587	15145	98	
1877	0	31587	15143	98	
1878	0	31583	15145	98	
1879	0	31579	15141	98	
1880	0	31576	15140	98	
1881	0	31573	15141	98	
1882	0	31571	15138	98	
1883	0	31568	15140	98	
1884	0	31568	15135	98	
1885	0	31569	15136	98	
1886	0	31571	15138	98	
1887	0	31565	15137	98	
1888	0	31572	15136	98	
1889	0	31570	15137	98	
1890	0	31572	15139	98	
1891	0	31575	15143	98	
1892	0	31576	15143	98	
1893	0	31581	15147	98	
1894	0	31581	15149	98	
1895	0	31587	15151	98	
1896	0	31589	15152	98	
1897	0	31589	15156	98	
1898	0	31588	15157	98	
1899	0	31590	15152	98	
1900	0	31592	15154	98	
1901	0	31594	15155	98	
1902	0	31596	15158	98	
1903	0	31601	15157	98	
1904	0	31600	15161	98	
1905	0	31601	15165	98	
1906	0	31600	15167	98	
1907	0	31605	15167	98	
1908	0	31610	15171	98	
1909	0	31612	15169	98	
1910	0	31611	15175	98	
1911	0	31612	15177	98	
1912	0	31614	15176	98	
1913	0	31618	15181	98	
1914	0	31615	15184	98	
1915	0	31615	15186	98	
1916	0	31621	15187	98	
1917	0	31619	15184	98	
1918	0	31620	15191	98	
1919	0	31623	15191	98	
1920	0	31622	15191	98	
1921	0	31617	15190	98	
1922	0	31623	15192	98	
1923	0	31627	15196	98	
1924	0	31627	15196	98	
1925	0	31625	15198	98	
1926	0	31625	15198	98	
1927	0	31630	15199	98	
1928	0	31625	15199	98	
1929	0	31617	15194	98	
1930	0	31606	15184	98	
1931	0	31596	15173	98	
1932	0	31575	15161	98	
1933	0	31563	15150	98	
1934	0	31550	15142	98	
1935	0	31546	15127	98	
1936	0	31533	15119	98	
1937	0	31533	15113	98	
1938	0	31525	15109	98	
1939	0	31525	15101	98	
1940	0	31520	15096	98	
1941	0	31520	15097	98	
1942	0	31520	15094	98	
1943	0	31523	15094	98	
1944	0	31522	15094	98	
1945	0	31529	15098	98	
1946	0	31526	15101	98	
1947	0	31533	15103	98	
1948	0	31539	15104	98	
1949	0	31540	15106	98	
1950	0	31543	15108	98	
1951	0	31545	15112	98	
1952	0	31545	15113	98	
1953	0	31549	15116	98	
1954	0	31559	15117	98	
1955	0	31556	15120	98	
1956	0	31557	15121	98	
1957	0	31561	15125	98	
1958	0	31563	15125	98	
1959	0	31558	15129	98	
1960	0	31562	15129	98	
1961	0	31556	15125	98	
1962	0	31556	15128	98	
1963	0	31552	15126	98	
1964	0	31549	15126	98	
1965	0	31548	15125	98	
1966	0	31545	15123	98	
1967	0	31541	15124	98	
1968	0	31541	15118	98	
1969	0	31540	15125	98	
1970	0	31546	15122	98	
1971	0	31545	15127	98	
1972	0	31548	15127	98	
1973	0	31549	15123	98	
1974	0	31552	15128	98	
1975	0	31552	15128	98	
1976	0	31551	15129	98	
1977	0	31556	15129	98	
1978	0	31560	15133	98	
1979	0	31564	15135	98	
1980	0	31563	15139	98	
1981	0	31567	15140	98	
1982	0	31573	15145	98	
1983	0	31572	15145	98	
1984	0	31578	15149	98	
1985	0	31576	15147	98	
1986	0	31583	15152	98	
1987	0	31583	15158	98	
1988	0	31580	15155	98	
1989	0	31585	15160	98	
1990	0	31590	15159	98	
1991	0	31588	15162	98	
1992	0	31593	15167	98	
1993	0	31594	15166	98	
1994	0	31595	15168	98	
1995	0	31597	15172	98	
1996	0	31594	15169	98	
1997	0	31601	15172	98	
1998	0	31596	15173	98	
1999	0	31596	15174	98	
2000	0	31601	15172	98	
2001	0	31595	15177	98	
2002	0	31600	15175	98	
2003	0	31598	15178	98	
2004	0	31601	15178	98	
2005	0	31599	15178	98	
2006	0	31599	15182	98	
2007	0	31598	15182	98	
2008	0	31600	15180	98	
2009	0	31604	15185	98	
2010	0	31601	15185	98	
2011	0	31601	15183	98	
2012	0	31591	15184	98	
2013	0	31583	15177	98	
2014	0	31574	15167	98	
2015	0	31558	15158	98	
2016	0	31542	15146	98	
2017	0	31526	15130	98	
2018	0	31516	15118	98	
2019	0	31503	15106	98	
2020	0	31495	15097	98	
2021	0	31484	15090	98	
2022	0	31484	15083	98	
2023	0	31478	15079	98	
2024	0	31476	15079	98	
2025	0	31478	15076	98	
2026	0	31485	15077	98	
2027	0	31485	15070	98	
2028	0	31486	15077	98	
2029	0	31489	15077	98	
2030	0	31496	15080	98	
2031	0	31499	15084	98	
2032	0	31498	15083	98	
2033	0	31504	15087	98	
2034	0	31505	15090	98	
2035	0	31516	15092	98	
2036	0	31519	15097	98	
2037	0	31517	15101	98	
2038	0	31524	15103	98	
2039	0	31524	15107	98	
2040	0	31532	15110	98	
2041	0	31527	15110	98	
2042	0	31525	15109	98	
2043	0	31526	15111	98	
2044	0	31521	15109	98	
2045	0	31516	15108	98	
2046	0	31520	15106	98	
2047	0	31513	15104	98	
2048	0	31513	15103	98	
2049	0	31507	15101	98	
2050	0	31504	15101	98	
2051	0	31498	15098	98	
2052	0	31501	15094	98	
2053	0	31500	15094	98	
2054	0	31503	15093	98	
2055	0	31499	15098	98	
2056	0	31497	15096	98	
2057	0	31498	15097	98	
2058	0	31506	15102	98	
2059	0	31504	15099	98	
2060	0	31509	15101	98	
2061	0	31511	15106	98	
2062	0	31515	15105	98	
2063	0	31515	15105	98	
2064	0	31514	15111	98	
2065	0	31527	15114	98	
2066	0	31523	15117	98	
2067	0	31528	15119	98	
2068	0	31528	15123	98	
2069	0	31533	15122	98	
2070	0	31530	15124	98	
2071	0	31535	15127	98	
2072	0	31537	15126	98	
2073	0	31540	15128	98	
2074	0	31537	15131	98	
2075	0	31540	15133	98	
2076	0	31541	15135	98	
2077	0	31549	15139	98	
2078	0	31543	15139	98	
2079	0	31544	15139	98	
2080	0	31543	15144	98	
2081	0	31548	15140	98	
2082	0	31543	15142	98	
2083	0	31542	15143	98	
2084	0	31543	15144	98	
2085	0	31540	15146	97	
2086	0	31540	15146	97	
2087	0	31538	15146	97	
2088	0	31546	15147	97	
2089	0	31540	15144	97	
2090	0	31543	15147	97	
2091	0	31541	15146	97	
2092	0	31545	15150	97	
2093	0	31542	15153	97	
2094	0	31550	15156	97	
2095	0	31548	15158	97	
2096	0	31551	15161	97	
2097	0	31542	15161	97	
2098	0	31536	15153	97	
2099	0	31528	15144	97	
2100	0	31519	15138	97	
2101	0	31498	15124	97	
2102	0	31488	15111	97	
2103	0	31479	15102	97	
2104	0	31466	15089	97	
2105	0	31458	15079	97	
2106	0	31459	15077	97	
2107	0	31451	15071	97	
2108	0	31453	15069	97	
2109	0	31453	15067	97	
2110	0	31450	15064	97	
2111	0	31452	15063	97	
2112	0	31458	15063	97	
2113	0	31461	15066	97	
2114	0	31464	15068	97	
2115	0	31469	15068	97	
2116	0	31472	15070	97	
2117	0	31476	15072	97	
2118	0	31474	15074	97	
2119	0	31474	15075	97	
2120	0	31479	15081	97	
2121	0	31477	15083	97	
2122	0	31483	15086	97	
2123	0	31486	15090	97	
2124	0	31491	15093	97	
2125	0	31489	15092	97	
2126	0	31488	15095	97	
2127	0	31489	15096	97	
2128	0	31491	15095	97	
2129	0	31490	15096	97	
2130	0	31492	15095	97	
2131	0	31492	15098	97	
2132	0	31490	15097	97	
2133	0	31490	15096	97	
2134	0	31487	15098	97	
2135	0	31490	15096	97	
2136	0	31489	15097	97	
2137	0	31491	15095	97	
2138	0	31489	15093	97	
2139	0	31492	15098	97	
2140	0	31497	15097	97	
2141	0	31496	15100	97	
2142	0	31500	15100	97	
2143	0	31505	15101	97	
2144	0	31507	15106	97	
2145	0	31507	15109	97	
2146	0	31517	15109	97	
2147	0	31520	15118	97	
2148	0	31521	15116	97	
2149	0	31526	15122	97	
2150	0	31528	15123	97	
2151	0	31533	15125	97	
2152	0	31535	15124	97	
2153	0	31533	15125	97	
2154	0	31528	15125	97	
2155	0	31533	15124	97	
2156	0	31529	15127	97	
2157	0	31529	15131	97	
2158	0	31528	15128	97	
2159	0	31527	15129	97	
2160	0	31526	15132	97	
2161	0	31526	15130	97	
2162	0	31529	15132	97	
2163	0	31533	15133	97	
2164	0	31530	15136	97	
2165	0	31535	15137	97	
2166	0	31532	15140	97	
2167	0	31532	15140	97	
2168	0	31531	15142	97	
2169	0	31532	15140	97	
2170	0	31536	15144	97	
2171	0	31531	15143	97	
2172	0	31536	15144	97	
2173	0	31536	15147	97	
2174	0	31534	15151	97	
2175	0	31539	15153	97	
2176	0	31539	15154	97	
2177	0	31545	15157	97	
2178	0	31555	15161	97	
2179	0	31551	15165	97	
2180	0	31557	15167	97	
2181	0	31560	15171	97	
2182	0	31557	15170	97	
2183	0	31552	15167	97	
2184	0	31545	15157	97	
2185	0	31536	15151	97	
2186	0	31519	15138	97	
2187	0	31501	15130	97	
2188	0	31492	15114	97	
2189	0	31474	15101	97	
2190	0	31467	15087	97	
2191	0	31458	15083	97	
2192	0	31457	15079	97	
2193	0	31455	15071	97	
2194	0	31450	15070	97	
2195	0	31452	15067	97	
2196	0	31451	15065	97	
2197	0	31450	15066	97	
2198	0	31452	15063	97	
2199	0	31456	15061	97	
2200	0	31459	15061	97	
2201	0	31462	15068	97	
2202	0	31457	15063	97	
2203	0	31460	15063	97	
2204	0	31463	15068	97	
2205	0	31458	15069	97	
2206	0	31465	15068	97	
2207	0	31465	15071	97	
2208	0	31467	15073	97	
2209	0	31470	15078	97	
2210	0	31471	15081	97	
2211	0	31475	15081	97	
2212	0	31476	15080	97	
2213	0	31473	15084	97	
2214	0	31469	15081	97	
2215	0	31474	15084	97	
2216	0	31471	15080	97	
2217	0	31467	15079	97	
2218	0	31470	15080	97	
2219	0	31466	15080	97	
2220	0	31463	15073	97	
2221	0	31465	15078	97	
2222	0	31468	15072	97	
2223	0	31470	15079	97	
2224	0	31478	15080	97	
2225	0	31478	15086	97	
2226	0	31485	15086	97	
2227	0	31491	15090	97	
2228	0	31490	15092	97	
2229	0	31493	15097	97	
2230	0	31500	15097	97	
2231	0	31502	15100	97	
2232	0	31506	15101	97	
2233	0	31507	15104	97	
2234	0	31510	15106	97	
2235	0	31513	15106	97	
2236	0	31511	15104	97	
2237	0	31511	15107	97	
2238	0	31515	15105	97	
2239	0	31512	15106	97	
2240	0	31517	15111	97	
2241	0	31519	15114	97	
2242	0	31517	15117	97	
2243	0	31519	15114	97	
2244	0	31519	15113	97	
2245	0	31525	15121	97	
2246	0	31520	15116	97	
2247	0	31526	15123	97	
2248	0	31527	15126	97	
2249	0	31534	15130	97	
2250	0	31533	15133	97	
2251	0	31538	15139	97	
2252	0	31545	15137	97	
2253	0	31546	15138	97	
2254	0	31545	15138	97	
2255	0	31547	15138	97	
2256	0	31545	15141	97	
2257	0	31544	15141	97	
2258	0	31544	15143	97	
2259	0	31541	15144	97	
2260	0	31537	15146	97	
2261	0	31541	15143	97	
2262	0	31540	15146	97	
2263	0	31546	15150	97	
2264	0	31550	15151	97	
2265	0	31545	15150	97	
2266	0	31544	15151	97	
2267	0	31544	15149	97	
2268	0	31532	15147	97	
2269	0	31522	15135	97	
2270	0	31513	15129	97	
2271	0	31501	15119	97	
2272	0	31491	15105	97	
2273	0	31481	15098	97	
2274	0	31473	15092	97	
2275	0	31465	15084	97	
2276	0	31467	15081	97	
2277	0	31466	15079	97	
2278	0	31469	15075	97	
2279	0	31466	15077	97	
2280	0	31472	15077	97	
2281	0	31472	15076	97	
2282	0	31480	15078	97	
2283	0	31486	15082	97	
2284	0	31489	15084	97	
2285	0	31501	15087	97	
2286	0	31505	15093	97	
2287	0	31511	15098	97	
2288	0	31516	15103	97	
2289	0	31521	15105	97	
2290	0	31520	15105	97	
2291	0	31523	15107	97	
2292	0	31522	15113	97	
2293	0	31524	15111	97	
2294	0	31523	15114	97	
2295	0	31529	15117	97	
2296	0	31530	15121	97	
2297	0	31528	15120	97	
2298	0	31519	15114	97	
2299	0	31523	15113	97	
2300	0	31521	15113	97	
2301	0	31519	15115	97	
2302	0	31515	15115	97	
2303	0	31512	15114	97	
2304	0	31517	15112	97	
2305	0	31518	15111	97	
2306	0	31516	15114	97	
2307	0	31518	15116	97	
2308	0	31515	15113	97	
2309	0	31521	15116	97	
2310	0	31527	15113	97	
2311	0	31527	15114	97	
2312	0	31526	15116	97	
2313	0	31529	15122	97	
2314	0	31537	15122	97	
2315	0	31536	15125	97	
2316	0	31542	15126	97	
2317	0	31549	15127	97	
2318	0	31549	15132	97	
2319	0	31550	15131	97	
2320	0	31554	15138	97	
2321	0	31560	15140	97	
2322	0	31555	15138	97	
2323	0	31560	15142	97	
2324	0	31566	15145	97	
2325	0	31566	15145	97	
2326	0	31565	15151	97	
2327	0	31567	15148	97	
2328	0	31569	15150	97	
2329	0	31573	15153	97	
2330	0	31568	15153	97	
2331	0	31572	15150	97	
2332	0	31572	15156	97	
2333	0	31573	15158	97	
2334	0	31573	15155	97	
2335	0	31573	15161	97	
2336	0	31575	15161	97	
2337	0	31577	15158	97	
2338	0	31575	15163	97	
2339	0	31573	15165	97	
2340	0	31575	15160	97	
2341	0	31574	15166	97	
2342	0	31578	15166	97	
2343	0	31575	15169	97	
2344	0	31579	15172	97	
2345	0	31583	15171	97	
2346	0	31586	15176	97	
2347	0	31582	15173	97	
2348	0	31583	15177	97	
2349	0	31583	15171	97	
2350	0	31568	15170	97	
2351	0	31565	15161	97	
2352	0	31547	15150	97	
2353	0	31529	15140	97	
2354	0	31519	15127	97	
2355	0	31508	15116	97	
2356	0	31504	15106	97	
2357	0	31496	15100	97	
2358	0	31493	15092	97	
2359	0	31493	15088	97	
2360	0	31493	15085	97	
2361	0	31493	15085	97	
2362	0	31494	15084	97	
2363	0	31499	15085	97	
2364	0	31503	15086	97	
2365	0	31510	15092	97	
2366	0	31512	15092	97	
2367	0	31514	15095	97	
2368	0	31522	15097	97	
2369	0	31528	15101	97	
2370	0	31531	15108	97	
2371	0	31539	15113	97	
2372	0	31543	15116	97	
2373	0	31545	15123	97	
2374	0	31549	15121	97	
2375	0	31554	15130	97	
2376	0	31556	15133	97	
2377	0	31563	15133	97	
2378	0	31560	15130	97	
2379	0	31560	15133	97	
2380	0	31552	15132	97	
2381	0	31553	15127	97	
2382	0	31545	15126	97	
2383	0	31543	15123	97	
2384	0	31540	15118	97	
2385	0	31533	15122	98	
2386	0	31536	15112	98	
2387	0	31529	15112	98	
2388	0	31529	15112	98	
2389	0	31531	15109	98	
2390	0	31526	15107	98	
2391	0	31528	15110	98	
2392	0	31533	15112	98	
2393	0	31536	15112	98	
2394	0	31538	15114	98	
2395	0	31539	15114	98	
2396	0	31541	15120	98	
2397	0	31549	15120	98	
2398	0	31553	15123	98	
2399	0	31556	15126	98	
2400	0	31555	15123	98	
2401	0	31562	15130	98	
2402	0	31564	15131	98	
2403	0	31560	15137	98	
2404	0	31571	15139	98	
2405	0	31569	15145	98	
2406	0	31576	15146	98	
2407	0	31575	15150	98	
2408	0	31585	15152	98	
2409	0	31587	15157	98	
2410	0	31590	15156	98	
2411	0	31589	15162	98	
2412	0	31591	15157	98	
2413	0	31594	15161	98	
2414	0	31593	15160	98	
2415	0	31594	15160	98	
2416	0	31592	15160	98	
2417	0	31591	15160	98	
2418	0	31597	15160	98	
2419	0	31591	15164	98	
2420	0	31589	15163	98	
2421	0	31593	15166	98	
2422	0	31595	15167	98	
2423	0	31591	15168	98	
2424	0	31597	15168	98	
2425	0	31595	15164	98	
2426	0	31592	15167	98	
2427	0	31582	15161	98	
2428	0	31573	15151	98	
2429	0	31556	15141	98	
2430	0	31542	15127	98	
2431	0	31533	15120	98	
2432	0	31526	15109	98	
2433	0	31517	15095	98	
2434	0	31512	15090	98	
2435	0	31509	15083	98	
2436	0	31506	15077	98	
2437	0	31497	15073	98	
2438	0	31497	15071	98	
2439	0	31498	15068	98	
2440	0	31507	15072	98	
2441	0	31506	15071	98	
2442	0	31518	15072	98	
2443	0	31514	15074	98	
2444	0	31523	15080	98	
2445	0	31526	15080	98	
2446	0	31528	15082	98	
2447	0	31531	15088	98	
2448	0	31536	15087	98	
2449	0	31534	15092	98	
2450	0	31542	15094	98	
2451	0	31543	15098	98	
2452	0	31548	15101	98	
2453	0	31550	15101	98	
2454	0	31548	15102	98	
2455	0	31547	15104	98	
2456	0	31554	15106	98	
2457	0	31550	15101	98	
2458	0	31551	15105	98	
2459	0	31548	15102	98	
2460	0	31547	15103	98	
2461	0	31545	15101	98	
2462	0	31544	15099	98	
2463	0	31536	15101	98	
2464	0	31542	15097	98	
2465	0	31538	15096	98	
2466	0	31540	15099	98	
2467	0	31542	15100	98	
2468	0	31542	15102	98	
2469	0	31549	15100	98	
2470	0	31550	15102	98	
2471	0	31548	15098	98	
2472	0	31552	15103	98	
2473	0	31562	15105	98	
2474	0	31565	15109	98	
2475	0	31565	15110	98	
2476	0	31566	15113	98	
2477	0	31574	15116	98	
2478	0	31572	15115	98	
2479	0	31580	15120	98	
2480	0	31576	15120	98	
2481	0	31579	15121	98	
2482	0	31578	15126	98	
2483	0	31579	15126	98	
2484	0	31578	15125	98	
2485	0	31580	15128	98	
2486	0	31582	15129	98	
2487	0	31589	15131	98	
2488	0	31582	15132	98	
2489	0	31585	15132	98	
2490	0	31586	15136	98	
2491	0	31587	15135	98	
2492	0	31587	15133	98	
2493	0	31588	15137	98	
2494	0	31594	15140	98	
2495	0	31592	15138	98	
2496	0	31597	15142	98	
2497	0	31594	15144	98	
2498	0	31596	15141	98	
2499	0	31600	15146	98	
2500	0	31598	15148	98	
2501	0	31598	15150	98	
2502	0	31605	15148	98	
2503	0	31606	15151	98	
2504	0	31601	15150	98	
2505	0	31589	15149	98	
2506	0	31585	15140	98	
2507	0	31571	15129	98	
2508	0	31555	15116	98	
2509	0	31539	15104	98	
2510	0	31530	15093	98	
2511	0	31518	15079	98	
2512	0	31510	15069	98	
2513	0	31505	15063	98	
2514	0	31499	15054	98	
2515	0	31491	15049	98	
2516	0	31487	15043	98	
2517	0	31485	15042	98	
2518	0	31488	15040	98	
2519	0	31490	15041	98	
2520	0	31495	15043	98	
2521	0	31493	15044	98	
2522	0	31501	15045	98	
2523	0	31507	15051	98	
2524	0	31508	15055	98	
2525	0	31513	15057	98	
2526	0	31514	15060	98	
2527	0	31518	15061	98	
2528	0	31527	15068	98	
2529	0	31528	15068	98	
2530	0	31528	15070	98	
2531	0	31529	15078	98	
2532	0	31540	15080	98	
2533	0	31539	15081	98	
2534	0	31541	15078	98	
2535	0	31543	15079	98	
2536	0	31535	15080	98	
2537	0	31538	15082	98	
2538	0	31540	15082	98	
2539	0	31545	15081	98	
2540	0	31544	15082	98	
2541	0	31542	15080	98	
2542	0	31540	15077	98	
2543	0	31543	15081	98	
2544	0	31546	15080	98	
2545	0	31549	15083	98	
2546	0	31548	15082	98	
2547	0	31546	15084	98	
2548	0	31547	15082	98	
2549	0	31554	15087	98	
2550	0	31555	15086	98	
2551	0	31557	15090	98	
2552	0	31561	15091	98	
2553	0	31562	15097	98	
2554	0	31568	15100	98	
2555	0	31569	15100	98	
2556	0	31573	15106	98	
2557	0	31575	15108	98	
2558	0	31581	15109	98	
2559	0	31578	15112	98	
2560	0	31578	15114	98	
2561	0	31588	15115	98	
2562	0	31585	15115	98	
2563	0	31589	15120	98	
2564	0	31589	15121	98	
2565	0	31597	15124	98	
2566	0	31601	15129	98	
2567	0	31599	15126	98	
2568	0	31599	15129	98	
2569	0	31607	15128	98	
2570	0	31605	15136	98	
2571	0	31605	15134	98	
2572	0	31605	15139	98	
2573	0	31607	15139	98	
2574	0	31609	15142	98	
2575	0	31612	15142	98	
2576	0	31607	15143	98	
2577	0	31612	15142	98	
2578	0	31617	15147	98	
2579	0	31613	15148	98	
2580	0	31612	15149	98	
2581	0	31615	15146	98	
2582	0	31613	15150	98	
2583	0	31616	15150	98	
2584	0	31616	15150	98	
2585	0	31621	15154	98	
2586	0	31621	15157	98	
2587	0	31623	15155	98	
2588	0	31618	15152	98	
2589	0	31610	15145	98	
2590	0	31598	15135	98	
2591	0	31577	15119	98	
2592	0	31562	15108	98	
2593	0	31550	15097	98	
2594	0	31539	15087	98	
2595	0	31530	15075	98	
2596	0	31524	15070	98	
2597	0	31514	15064	98	
2598	0	31516	15062	98	
2599	0	31514	15052	98	
2600	0	31515	15055	98	
2601	0	31519	15054	98	
2602	0	31517	15056	98	
2603	0	31526	15056	98	
2604	0	31531	15061	98	
2605	0	31537	15063	98	
2606	0	31536	15064	98	
2607	0	31549	15066	98	
2608	0	31546	15073	98	
2609	0	31549	15073	98	
2610	0	31554	15075	98	
2611	0	31551	15073	98	
2612	0	31555	15081	98	
2613	0	31550	15079	98	
2614	0	31557	15080	98	
2615	0	31558	15083	98	
2616	0	31553	15084	98	
2617	0	31556	15085	98	
2618	0	31558	15085	98	
2619	0	31555	15084	98	
2620	0	31553	15085	98	
2621	0	31557	15082	98	
2622	0	31556	15083	98	
2623	0	31557	15084	98	
2624	0	31559	15081	98	
2625	0	31556	15082	98	
2626	0	31557	15083	98	
2627	0	31558	15081	98	
2628	0	31565	15083	98	
2629	0	31561	15089	98	
2630	0	31565	15086	98	
2631	0	31570	15085	98	
2632	0	31567	15091	98	
2633	0	31572	15092	98	
2634	0	31579	15093	98	
2635	0	31582	15095	98	
2636	0	31580	15099	98	
2637	0	31583	15099	98	
2638	0	31590	15102	98	
2639	0	31593	15102	98	
2640	0	31595	15105	98	
2641	0	31591	15106	98	
2642	0	31596	15107	98	
2643	0	31602	15113	98	
2644	0	31606	15110	98	
2645	0	31605	15114	98	
2646	0	31603	15115	98	
2647	0	31608	15118	98	
2648	0	31606	15119	98	
2649	0	31606	15121	98	
2650	0	31608	15119	98	
2651	0	31603	15122	98	
2652	0	31609	15124	98	
2653	0	31606	15125	98	
2654	0	31611	15127	98	
2655	0	31609	15125	98	
2656	0	31610	15128	98	
2657	0	31610	15131	98	
2658	0	31610	15132	98	
2659	0	31617	15133	98	
2660	0	31615	15133	98	
2661	0	31619	15133	98	
2662	0	31614	15135	98	
2663	0	31615	15135	98	
2664	0	31620	15137	98	
2665	0	31617	15133	98	
2666	0	31617	15139	98	
2667	0	31618	15139	98	
2668	0	31619	15139	98	
2669	0	31618	15137	98	
2670	0	31618	15139	98	
2671	0	31611	15134	98	
2672	0	31596	15125	98	
2673	0	31585	15116	98	
2674	0	31568	15101	98	
2675	0	31549	15087	98	
2676	0	31538	15074	98	
2677	0	31528	15064	98	
2678	0	31518	15057	98	
2679	0	31517	15048	98	
2680	0	31503	15039	98	
2681	0	31505	15035	98	
2682	0	31508	15034	98	
2683	0	31506	15031	98	
2684	0	31510	15032	98	
2685	0	31514	15036	97	
2686	0	31521	15041	97	
2687	0	31524	15044	97	
2688	0	31536	15044	97	
2689	0	31535	15053	97	
2690	0	31542	15056	97	
2691	0	31540	15059	97	
2692	0	31546	15059	97	
2693	0	31550	15062	97	
2694	0	31551	15065	97	
2695	0	31552	15066	97	
2696	0	31553	15067	97	
2697	0	31554	15070	97	
2698	0	31552	15072	97	
2699	0	31555	15071	97	
2700	0	31558	15070	97	
2701	0	31552	15072	97	
2702	0	31559	15073	97	
2703	0	31557	15072	97	
2704	0	31555	15071	97	
2705	0	31556	15068	97	
2706	0	31553	15069	97	
2707	0	31553	15068	97	
2708	0	31552	15067	97	
2709	0	31555	15065	97	
2710	0	31558	15070	97	
2711	0	31559	15067	97	
2712	0	31560	15072	97	
2713	0	31566	15072	97	
2714	0	31567	15073	97	
2715	0	31563	15070	97	
2716	0	31572	15079	97	
2717	0	31574	15079	97	
2718	0	31583	15081	97	
2719	0	31579	15086	97	
2720	0	31583	15089	97	
2721	0	31594	15090	97	
2722	0	31589	15087	97	
2723	0	31596	15095	97	
2724	0	31598	15096	97	
2725	0	31600	15098	97	
2726	0	31596	15102	97	
2727	0	31600	15102	97	
2728	0	31605	15107	97	
2729	0	31604	15105	97	
2730	0	31604	15105	97	
2731	0	31608	15107	97	
2732	0	31610	15109	97	
2733	0	31610	15109	97	
2734	0	31614	15113	97	
2735	0	31617	15115	97	
2736	0	31610	15116	97	
2737	0	31619	15120	97	
2738	0	31612	15117	97	
2739	0	31613	15115	97	
2740	0	31616	15121	97	
2741	0	31615	15123	97	
2742	0	31622	15127	97	
2743	0	31625	15126	97	
2744	0	31624	15123	97	
2745	0	31622	15129	97	
2746	0	31622	15126	97	
2747	0	31629	15128	97	
2748	0	31627	15130	97	
2749	0	31630	15135	97	
2750	0	31632	15138	97	
2751	0	31635	15137	97	
2752	0	31636	15139	97	
2753	0	31637	15138	97	
2754	0	31633	15141	97	
2755	0	31637	15142	97	
2756	0	31639	15148	97	
2757	0	31636	15143	97	
2758	0	31645	15148	97	
2759	0	31640	15151	97	
2760	0	31641	15156	97	
2761	0	31648	15154	97	
2762	0	31649	15157	97	
2763	0	31649	15157	97	
2764	0	31647	15157	97	
2765	0	31647	15153	97	
2766	0	31636	15149	97	
2767	0	31619	15136	97	
2768	0	31603	15124	97	
2769	0	31583	15104	97	
2770	0	31570	15094	97	
2771	0	31555	15080	97	
2772	0	31547	15071	97	
2773	0	31543	15062	97	
2774	0	31533	15053	97	
2775	0	31531	15044	97	
2776	0	31531	15042	97	
2777	0	31530	15043	97	
2778	0	31527	15044	97	
2779	0	31535	15045	97	
2780	0	31541	15044	97	
2781	0	31551	15048	97	
2782	0	31559	15052	97	
2783	0	31565	15056	97	
2784	0	31568	15059	97	
2785	0	31574	15063	97	
2786	0	31573	15061	97	
2787	0	31575	15069	97	
2788	0	31574	15066	97	
2789	0	31575	15070	97	
2790	0	31578	15069	97	
2791	0	31587	15074	97	
2792	0	31587	15074	97	
2793	0	31593	15077	97	
2794	0	31588	15080	97	
2795	0	31597	15081	97	
2796	0	31592	15084	97	
2797	0	31594	15081	97	
2798	0	31596	15080	97	
2799	0	31596	15080	97	
2800	0	31594	15080	97	
2801	0	31599	15082	97	
2802	0	31601	15084	97	
2803	0	31600	15086	97	
2804	0	31603	15085	97	
2805	0	31600	15083	97	
2806	0	31601	15087	97	
2807	0	31604	15083	97	
2808	0	31603	15083	97	
2809	0	31607	15086	97	
2810	0	31606	15086	97	
2811	0	31614	15087	97	
2812	0	31615	15088	97	
2813	0	31611	15090	97	
2814	0	31618	15089	97	
2815	0	31623	15097	97	
2816	0	31620	15097	97	
2817	0	31623	15100	97	
2818	0	31632	15100	97	
2819	0	31628	15106	97	
2820	0	31635	15108	97	
2821	0	31637	15111	97	
2822	0	31639	15109	97	
2823	0	31638	15115	97	
2824	0	31644	15115	97	
2825	0	31648	15113	97	
2826	0	31649	15117	97	
2827	0	31648	15120	97	
2828	0	31652	15124	97	
2829	0	31647	15124	97	
2830	0	31656	15125	97	
2831	0	31652	15126	97	
2832	0	31651	15126	97	
2833	0	31652	15129	97	
2834	0	31656	15126	97	
2835	0	31659	15129	97	
2836	0	31657	15129	97	
2837	0	31659	15131	97	
2838	0	31654	15134	97	
2839	0	31655	15133	97	
2840	0	31659	15133	97	
2841	0	31659	15134	97	
2842	0	31661	15139	97	
2843	0	31658	15137	97	
2844	0	31668	15141	97	
2845	0	31662	15142	97	
2846	0	31666	15144	97	
2847	0	31669	15148	97	
2848	0	31674	15147	97	
2849	0	31671	15147	97	
2850	0	31670	15150	97	
2851	0	31672	15150	97	
2852	0	31670	15152	97	
2853	0	31673	15154	97	
2854	0	31670	15155	97	
2855	0	31669	15156	97	
2856	0	31671	15156	97	
2857	0	31675	15156	97	
2858	0	31678	15161	97	
2859	0	31676	15161	97	
2860	0	31679	15162	97	
2861	0	31678	15163	97	
2862	0	31677	15165	97	
2863	0	31675	15164	97	
2864	0	31666	15159	97	
2865	0	31656	15148	97	
2866	0	31636	15134	97	
2867	0	31625	15121	97	
2868	0	31608	15110	97	
2869	0	31598	15100	97	
2870	0	31596	15090	97	
2871	0	31586	15083	97	
2872	0	31583	15075	97	
2873	0	31577	15069	97	
2874	0	31581	15065	97	
2875	0	31582	15062	97	
2876	0	31583	15059	97	
2877	0	31584	15061	97	
2878	0	31585	15063	97	
2879	0	31594	15066	97	
2880	0	31601	15069	97	
2881	0	31601	15068	97	
2882	0	31614	15074	97	
2883	0	31618	15075	97	
2884	0	31619	15080	97	
2885	0	31619	15079	97	
2886	0	31626	15079	97	
2887	0	31624	15085	97	
2888	0	31626	15092	97	
2889	0	31628	15089	97	
2890	0	31628	15094	97	
2891	0	31633	15095	97	
2892	0	31638	15098	97	
2893	0	31635	15096	97	
2894	0	31636	15096	97	
2895	0	31638	15097	97	
2896	0	31632	15098	97	
2897	0	31634	15096	97	
2898	0	31632	15097	97	
2899	0	31633	15094	97	
2900	0	31631	15092	97	
2901	0	31634	15093	97	
2902	0	31639	15095	97	
2903	0	31639	15091	97	
2904	0	31634	15095	97	
2905	0	31640	15095	97	
2906	0	31643	15093	97	
2907	0	31639	15094	97	
2908	0	31643	15094	97	
2909	0	31644	15100	97	
2910	0	31646	15100	97	
2911	0	31655	15104	97	
2912	0	31657	15108	97	
2913	0	31659	15106	97	
2914	0	31662	15112	97	
2915	0	31666	15116	97	
2916	0	31670	15114	97	
2917	0	31675	15120	97	
2918	0	31676	15119	97	
2919	0	31672	15122	97	
2920	0	31676	15127	97	
2921	0	31680	15129	97	
2922	0	31685	15127	97	
2923	0	31687	15132	97	
2924	0	31683	15134	97	
2925	0	31686	15136	97	
2926	0	31691	15137	97	
2927	0	31689	15140	97	
2928	0	31693	15142	97	
2929	0	31699	15148	97	
2930	0	31695	15144	97	
2931	0	31703	15151	97	
2932	0	31699	15150	97	
2933	0	31700	15153	97	
2934	0	31707	15156	97	
2935	0	31702	15157	97	
2936	0	31713	15160	97	
2937	0	31710	15159	97	
2938	0	31715	15163	97	
2939	0	31716	15168	97	
2940	0	31717	15168	97	
2941	0	31721	15168	97	
2942	0	31716	15169	97	
2943	0	31716	15172	97	
2944	0	31718	15174	97	
2945	0	31717	15175	97	
2946	0	31718	15175	97	
2947	0	31716	15174	97	
2948	0	31721	15177	97	
2949	0	31718	15178	97	
2950	0	31720	15177	97	
2951	0	31722	15180	97	
2952	0	31721	15176	97	
2953	0	31722	15182	97	
2954	0	31722	15183	97	
2955	0	31716	15185	97	
2956	0	31719	15184	97	
2957	0	31720	15183	97	
2958	0	31724	15185	97	
2959	0	31717	15184	97	
2960	0	31719	15188	97	
2961	0	31725	15189	97	
2962	0	31721	15189	97	
2963	0	31716	15187	97	
2964	0	31709	15182	97	
2965	0	31699	15169	97	
2966	0	31677	15158	97	
2967	0	31658	15141	97	
2968	0	31647	15125	97	
2969	0	31633	15115	97	
2970	0	31618	15103	97	
2971	0	31613	15091	97	
2972	0	31614	15089	97	
2973	0	31610	15081	97	
2974	0	31607	15076	97	
2975	0	31610	15074	97	
2976	0	31613	15073	97	
2977	0	31615	15076	97	
2978	0	31621	15076	97	
2979	0	31625	15082	97	
2980	0	31637	15079	97	
2981	0	31637	15080	97	
2982	0	31644	15088	97	
2983	0	31652	15092	97	
2984	0	31659	15092	97	
2985	0	31656	15093	98	
2986	0	31662	15098	98	
2987	0	31664	15099	98	
2988	0	31667	15100	98	
2989	0	31670	15103	98	
2990	0	31667	15105	98	
2991	0	31672	15105	98	
2992	0	31670	15109	98	
2993	0	31671	15107	98	
2994	0	31674	15108	98	
2995	0	31672	15111	98	
2996	0	31676	15114	98	
2997	0	31671	15115	98	
2998	0	31669	15112	98	
2999	0	31671	15113	98	
3000	0	31669	15109	98	
3001	0	31668	15109	98	
3002	0	31667	15110	98	
3003	0	31674	15109	98	
3004	0	31672	15109	98	
3005	0	31675	15111	98	
3006	0	31676	15109	98	
3007	0	31677	15112	98	
3008	0	31677	15109	98	
3009	0	31677	15113	98	
3010	0	31683	15116	98	
3011	0	31689	15118	98	
3012	0	31688	15123	98	
3013	0	31695	15121	98	
3014	0	31697	15125	98	
3015	0	31699	15130	98	
3016	0	31697	15131	98	
3017	0	31708	15134	98	
3018	0	31708	15135	98	
3019	0	31709	15136	98	
3020	0	31717	15140	98	
3021	0	31720	15145	98	
3022	0	31719	15145	98	
3023	0	31723	15148	98	
3024	0	31728	15152	98	
3025	0	31729	15156	98	
3026	0	31727	15158	98	
3027	0	31737	15161	98	
3028	0	31734	15162	98	
3029	0	31735	15164	98	
3030	0	31740	15164	98	
3031	0	31739	15166	98	
3032	0	31742	15169	98	
3033	0	31740	15169	98	
3034	0	31737	15169	98	
3035	0	31741	15168	98	
3036	0	31741	15169	98	
3037	0	31737	15170	98	
3038	0	31737	15170	98	
3039	0	31734	15174	98	
3040	0	31733	15175	98	
3041	0	31743	15173	98	
3042	0	31742	15172	98	
3043	0	31739	15175	98	
3044	0	31738	15180	98	
3045	0	31744	15175	98	
3046	0	31741	15180	98	
3047	0	31745	15184	98	
3048	0	31739	15183	98	
3049	0	31745	15183	98	
3050	0	31741	15184	98	
3051	0	31738	15185	98	
3052	0	31742	15185	98	
3053	0	31743	15187	98	
3054	0	31746	15190	98	
3055	0	31751	15189	98	
3056	0	31749	15192	98	
3057	0	31754	15196	98	
3058	0	31751	15197	98	
3059	0	31756	15199	98	
3060	0	31756	15199	98	
3061	0	31757	15205	98	
3062	0	31751	15203	98	
3063	0	31752	15201	98	
3064	0	31743	15198	98	
3065	0	31730	15186	98	
3066	0	31708	15170	98	
3067	0	31692	15153	98	
3068	0	31672	15140	98	
3069	0	31657	15128	98	
3070	0	31655	15118	98	
3071	0	31645	15108	98	
3072	0	31642	15098	98	
3073	0	31638	15100	98	
3074	0	31634	15091	98	
3075	0	31639	15090	98	
3076	0	31638	15088	98	
3077	0	31640	15088	98	
3078	0	31641	15089	98	
3079	0	31647	15093	98	
3080	0	31650	15093	98	
3081	0	31657	15096	98	
3082	0	31663	15100	98	
3083	0	31663	15103	98	
3084	0	31670	15104	98	
3085	0	31668	15103	98	
3086	0	31672	15106	98	
3087	0	31668	15108	98	
3088	0	31667	15109	98	
3089	0	31669	15108	98	
3090	0	31668	15107	98	
3091	0	31672	15109	98	
3092	0	31672	15108	98	
3093	0	31668	15107	98	
3094	0	31670	15109	98	
3095	0	31664	15108	98	
3096	0	31658	15104	98	
3097	0	31652	15103	98	
3098	0	31650	15101	98	
3099	0	31650	15097	98	
3100	0	31649	15100	98	
3101	0	31649	15095	98	
3102	0	31647	15097	98	
3103	0	31647	15099	98	
3104	0	31654	15102	98	
3105	0	31652	15102	98	
3106	0	31656	15104	98	
3107	0	31661	15109	98	
3108	0	31672	15115	98	
3109	0	31678	15118	98	
3110	0	31690	15125	98	
3111	0	31690	15129	98	
3112	0	31697	15136	98	
3113	0	31705	15139	98	
3114	0	31716	15146	98	
3115	0	31724	15152	98	
3116	0	31732	15156	98	
3117	0	31738	15160	98	
3118	0	31745	15168	98	
3119	0	31749	15169	98	
3120	0	31753	15176	98	
3121	0	31754	15181	98	
3122	0	31757	15179	98	
3123	0	31752	15182	98	
3124	0	31760	15180	98	
3125	0	31759	15184	98	
3126	0	31760	15183	98	
3127	0	31760	15183	98	
3128	0	31759	15187	98	
3129	0	31761	15186	98	
3130	0	31764	15193	98	
3131	0	31765	15195	98	
3132	0	31771	15199	98	
3133	0	31770	15201	98	
3134	0	31775	15202	98	
3135	0	31780	15204	98	
3136	0	31782	15208	98	
3137	0	31778	15204	98	
3138	0	31780	15209	98	
3139	0	31778	15208	98	
3140	0	31775	15207	98	
3141	0	31781	15208	98	
3142	0	31774	15211	98	
3143	0	31778	15214	98	
3144	0	31780	15213	98	
3145	0	31779	15213	98	
3146	0	31776	15215	98	
3147	0	31780	15216	98	
3148	0	31775	15219	98	
3149	0	31778	15216	98	
3150	0	31779	15220	98	
3151	0	31779	15219	98	
3152	0	31784	15221	98	
3153	0	31787	15223	98	
3154	0	31787	15226	98	
3155	0	31783	15226	98	
3156	0	31783	15225	98	
3157	0	31786	15226	98	
3158	0	31778	15222	98	
3159	0	31763	15211	98	
3160	0	31748	15201	98	
3161	0	31728	15187	98	
3162	0	31710	15171	98	
3163	0	31693	15154	98	
3164	0	31681	15144	98	
3165	0	31674	15135	98	
3166	0	31665	15126	98	
3167	0	31664	15123	98	
3168	0	31662	15116	98	
3169	0	31664	15114	98	
3170	0	31666	15115	98	
3171	0	31673	15117	98	
3172	0	31672	15118	98	
3173	0	31681	15120	98	
3174	0	31682	15125	98	
3175	0	31690	15127	98	
3176	0	31693	15128	98	
3177	0	31698	15131	98	
3178	0	31702	15131	98	
3179	0	31704	15131	98	
3180	0	31703	15130	98	
3181	0	31705	15132	98	
3182	0	31701	15133	98	
3183	0	31700	15135	98	
3184	0	31701	15134	98	
3185	0	31702	15132	98	
3186	0	31695	15132	98	
3187	0	31691	15132	98	
3188	0	31690	15127	98	
3189	0	31688	15128	98	
3190	0	31687	15126	98	
3191	0	31679	15125	98	
3192	0	31680	15124	98	
3193	0	31679	15124	98	
3194	0	31676	15123	98	
3195	0	31675	15119	98	
3196	0	31675	15122	98	
3197	0	31670	15120	98	
3198	0	31670	15121	98	
3199	0	31666	15117	98	
3200	0	31671	15118	98	
3201	0	31669	15116	98	
3202	0	31669	15118	98	
3203	0	31675	15120	98	
3204	0	31681	15125	98	
3205	0	31685	15129	98	
3206	0	31690	15132	98	
3207	0	31690	15136	98	
3208	0	31697	15139	98	
3209	0	31707	15143	98	
3210	0	31709	15142	98	
3211	0	31705	15143	98	
3212	0	31712	15145	98	
3213	0	31710	15144	98	
3214	0	31712	15149	98	
3215	0	31709	15148	98	
3216	0	31708	15146	98	
3217	0	31708	15149	98	
3218	0	31713	15149	98	
3219	0	31711	15150	98	
3220	0	31704	15147	98	
3221	0	31705	15149	98	
3222	0	31701	15145	98	
3223	0	31703	15147	98	
3224	0	31703	15152	98	
3225	0	31708	15151	98	
3226	0	31705	15151	98	
3227	0	31704	15152	98	
3228	0	31707	15153	98	
3229	0	31712	15150	98	
3230	0	31708	15154	98	
3231	0	31715	15158	98	
3232	0	31715	15160	98	
3233	0	31716	15161	98	
3234	0	31715	15165	98	
3235	0	31721	15169	98	
3236	0	31722	15171	98	
3237	0	31730	15172	98	
3238	0	31728	15176	98	
3239	0	31729	15178	98	
3240	0	31732	15177	98	
3241	0	31730	15178	98	
3242	0	31729	15180	98	
3243	0	31732	15180	98	
3244	0	31731	15184	98	
3245	0	31733	15187	98	
3246	0	31733	15182	98	
3247	0	31742	15190	98	
3248	0	31744	15191	98	
3249	0	31744	15194	98	
3250	0	31743	15198	98	
3251	0	31742	15198	98	
3252	0	31749	15198	98	
3253	0	31741	15195	98	
3254	0	31730	15186	98	
3255	0	31705	15171	98	
3256	0	31693	15160	98	
3257	0	31680	15146	98	
3258	0	31665	15133	98	
3259	0	31655	15122	98	
3260	0	31646	15116	98	
3261	0	31642	15111	98	
3262	0	31643	15105	98	
3263	0	31640	15100	98	
3264	0	31642	15102	98	
3265	0	31646	15099	98	
3266	0	31644	15101	98	
3267	0	31654	15103	98	
3268	0	31654	15104	98	
3269	0	31656	15109	98	
3270	0	31668	15112	98	
3271	0	31666	15116	98	
3272	0	31678	15121	98	
3273	0	31684	15124	98	
3274	0	31690	15128	98	
3275	0	31692	15134	98	
3276	0	31698	15139	98	
3277	0	31705	15141	98	
3278	0	31709	15144	98	
3279	0	31705	15146	98	
3280	0	31710	15149	98	
3281	0	31706	15149	98	
3282	0	31706	15147	98	
3283	0	31698	15149	98	
3284	0	31697	15149	98	
3285	0	31700	15148	97	
3286	0	31696	15144	97	
3287	0	31694	15147	97	
3288	0	31689	15147	97	
3289	0	31692	15144	97	
3290	0	31692	15143	97	
3291	0	31684	15141	97	
3292	0	31683	15136	97	
3293	0	31690	15142	97	
3294	0	31685	15143	97	
3295	0	31691	15140	97	
3296	0	31690	15145	97	
3297	0	31695	15148	97	
3298	0	31694	15149	97	
3299	0	31699	15155	97	
3300	0	31703	15158	97	
3301	0	31707	15159	97	
3302	0	31715	15161	97	
3303	0	31717	15161	97	
3304	0	31722	15166	97	
3305	0	31725	15171	97	
3306	0	31727	15179	97	
3307	0	31734	15181	97	
3308	0	31737	15183	97	
3309	0	31742	15187	97	
3310	0	31743	15197	97	
3311	0	31756	15197	97	
3312	0	31757	15197	97	
3313	0	31761	15203	97	
3314	0	31756	15197	97	
3315	0	31764	15204	97	
3316	0	31766	15209	97	
3317	0	31765	15211	97	
3318	0	31769	15212	97	
3319	0	31773	15217	97	
3320	0	31774	15221	97	
3321	0	31774	15221	97	
3322	0	31776	15221	97	
3323	0	31774	15221	97	
3324	0	31771	15220	97	
3325	0	31771	15219	97	
3326	0	31772	15219	97	
3327	0	31773	15220	97	
3328	0	31774	15220	97	
3329	0	31770	15218	97	
3330	0	31768	15220	97	
3331	0	31764	15220	97	
3332	0	31764	15221	97	
3333	0	31763	15226	97	
3334	0	31766	15225	97	
3335	0	31774	15229	97	
3336	0	31769	15227	97	
3337	0	31771	15231	97	
3338	0	31776	15231	97	
3339	0	31774	15234	97	
3340	0	31773	15232	97	
3341	0	31771	15236	97	
3342	0	31767	15230	97	
3343	0	31751	15223	97	
3344	0	31739	15210	97	
3345	0	31720	15192	97	
3346	0	31697	15177	97	
3347	0	31686	15163	97	
3348	0	31670	15148	97	
3349	0	31664	15144	97	
3350	0	31654	15138	97	
3351	0	31651	15133	97	
3352	0	31646	15133	97	
3353	0	31653	15126	97	
3354	0	31649	15127	97	
3355	0	31657	15127	97	
3356	0	31658	15125	97	
3357	0	31663	15130	97	
3358	0	31667	15129	97	
3359	0	31664	15131	97	
3360	0	31673	15136	97	
3361	0	31675	15141	97	
3362	0	31677	15141	97	
3363	0	31680	15146	97	
3364	0	31678	15150	97	
3365	0	31692	15149	97	
3366	0	31698	15154	97	
3367	0	31702	15161	97	
3368	0	31712	15165	97	
3369	0	31717	15174	97	
3370	0	31720	15177	97	
3371	0	31723	15179	97	
3372	0	31723	15184	97	
3373	0	31727	15185	97	
3374	0	31723	15180	97	
3375	0	31706	15173	97	
3376	0	31711	15176	97	
3377	0	31703	15171	97	
3378	0	31708	15170	97	
3379	0	31703	15164	97	
3380	0	31697	15168	97	
3381	0	31696	15161	97	
3382	0	31692	15158	97	
3383	0	31685	15157	97	
3384	0	31685	15158	97	
3385	0	31683	15159	97	
3386	0	31690	15158	97	
3387	0	31685	15157	97	
3388	0	31686	15156	97	
3389	0	31687	15157	97	
3390	0	31693	15161	97	
3391	0	31693	15161	97	
3392	0	31696	15167	97	
3393	0	31703	15167	97	
3394	0	31707	15174	97	
3395	0	31710	15176	97	
3396	0	31715	15177	97	
3397	0	31718	15186	97	
3398	0	31721	15185	97	
3399	0	31725	15186	97	
3400	0	31728	15189	97	
3401	0	31731	15194	97	
3402	0	31731	15196	97	
3403	0	31729	15195	97	
3404	0	31732	15199	97	
3405	0	31731	15198	97	
3406	0	31740	15199	97	
3407	0	31741	15199	97	
3408	0	31738	15204	97	
3409	0	31739	15206	97	
3410	0	31742	15205	97	
3411	0	31742	15209	97	
3412	0	31742	15209	97	
3413	0	31751	15215	97	
3414	0	31749	15216	97	
3415	0	31756	15221	97	
3416	0	31751	15219	97	
3417	0	31757	15220	97	
3418	0	31760	15222	97	
3419	0	31763	15222	97	
3420	0	31760	15230	97	
3421	0	31756	15225	97	
3422	0	31751	15221	97	
3423	0	31735	15213	97	
3424	0	31723	15196	97	
3425	0	31707	15180	97	
3426	0	31692	15171	97	
3427	0	31681	15161	97	
3428	0	31666	15148	97	
3429	0	31659	15135	97	
3430	0	31648	15129	97	
3431	0	31646	15118	97	
3432	0	31641	15117	97	
3433	0	31643	15111	97	
3434	0	31639	15114	97	
3435	0	31644	15110	97	
3436	0	31647	15115	97	
3437	0	31649	15117	97	
3438	0	31652	15117	97	
3439	0	31654	15118	97	
3440	0	31662	15122	97	
3441	0	31663	15123	97	
3442	0	31664	15125	97	
3443	0	31670	15128	97	
3444	0	31674	15132	97	
3445	0	31676	15132	97	
3446	0	31679	15132	97	
3447	0	31676	15136	97	
3448	0	31678	15139	97	
3449	0	31681	15137	97	
3450	0	31674	15140	97	
3451	0	31676	15139	97	
3452	0	31673	15139	97	
3453	0	31674	15137	97	
3454	0	31669	15136	97	
3455	0	31665	15135	97	
3456	0	31663	15134	97	
3457	0	31658	15130	97	
3458	0	31656	15132	97	
3459	0	31658	15132	97	
3460	0	31658	15133	97	
3461	0	31656	15133	97	
3462	0	31655	15129	97	
3463	0	31657	15130	97	
3464	0	31663	15136	97	
3465	0	31668	15135	97	
3466	0	31668	15140	97	
3467	0	31673	15143	97	
3468	0	31677	15144	97	
3469	0	31680	15148	97	
3470	0	31683	15148	97	
3471	0	31682	15149	97	
3472	0	31684	15153	97	
3473	0	31692	15157	97	
3474	0	31694	15161	97	
3475	0	31693	15162	97	
3476	0	31695	15165	97	
3477	0	31703	15169	97	
3478	0	31702	15170	97	
3479	0	31712	15171	97	
3480	0	31705	15173	97	
3481	0	31712	15175	97	
3482	0	31715	15180	97	
3483	0	31719	15179	97	
3484	0	31713	15183	97	
3485	0	31719	15182	97	
3486	0	31716	15184	97	
3487	0	31718	15183	97	
3488	0	31717	15181	97	
3489	0	31715	15180	97	
3490	0	31713	15181	97	
3491	0	31713	15184	97	
3492	0	31710	15183	97	
3493	0	31707	15183	97	
3494	0	31708	15183	97	
3495	0	31706	15184	97	
3496	0	31714	15186	97	
3497	0	31711	15184	97	
3498	0	31716	15185	97	
3499	0	31705	15185	97	
3500	0	31708	15184	97	
3501	0	31705	15186	97	
3502	0	31693	15175	97	
3503	0	31671	15165	97	
3504	0	31664	15153	97	
3505	0	31649	15141	97	
3506	0	31636	15129	97	
3507	0	31633	15121	97	
3508	0	31632	15114	97	
3509	0	31617	15104	97	
3510	0	31617	15101	97	
3511	0	31613	15099	97	
3512	0	31612	15094	97	
3513	0	31614	15094	97	
3514	0	31616	15095	97	
3515	0	31619	15101	97	
3516	0	31626	15098	97	
3517	0	31625	15105	97	
3518	0	31636	15111	97	
3519	0	31640	15111	97	
3520	0	31646	15114	97	
3521	0	31642	15113	97	
3522	0	31649	15120	97	
3523	0	31646	15120	97	
3524	0	31650	15121	97	
3525	0	31652	15122	97	
3526	0	31653	15123	97	
3527	0	31653	15127	97	
3528	0	31649	15123	97	
3529	0	31652	15126	97	
3530	0	31646	15125	97	
3531	0	31643	15127	97	
3532	0	31640	15123	97	
3533	0	31642	15122	97	
3534	0	31642	15122	97	
3535	0	31631	15118	97	
3536	0	31632	15118	97	
3537	0	31632	15115	97	
3538	0	31632	15120	97	
3539	0	31629	15115	97	
3540	0	31628	15116	97	
3541	0	31629	15119	97	
3542	0	31626	15115	97	
3543	0	31629	15116	97	
3544	0	31631	15116	97	
3545	0	31638	15119	97	
3546	0	31634	15122	97	
3547	0	31642	15123	97	
3548	0	31641	15127	97	
3549	0	31649	15128	97	
3550	0	31648	15127	97	
3551	0	31649	15132	97	
3552	0	31657	15136	97	
3553	0	31655	15138	97	
3554	0	31659	15139	97	
3555	0	31660	15139	97	
3556	0	31663	15140	97	
3557	0	31670	15147	97	
3558	0	31667	15147	97	
3559	0	31672	15149	97	
3560	0	31674	15151	97	
3561	0	31670	15153	97	
3562	0	31677	15154	97	
3563	0	31679	15157	97	
3564	0	31677	15159	97	
3565	0	31680	15161	97	
3566	0	31679	15157	97	
3567	0	31679	15165	97	
3568	0	31679	15160	97	
3569	0	31680	15164	97	
3570	0	31679	15163	97	
3571	0	31679	15166	97	
3572	0	31680	15164	97	
3573	0	31677	15165	97	
3574	0	31680	15166	97	
3575	0	31683	15169	97	
3576	0	31680	15168	97	
3577	0	31685	15173	97	
3578	0	31685	15170	97	
3579	0	31687	15174	97	
3580	0	31689	15179	97	
3581	0	31685	15174	97	
3582	0	31679	15172	97	
3583	0	31667	15161	97	
3584	0	31653	15152	97	
3585	0	31636	15131	97	
3586	0	31616	15124	97	
3587	0	31606	15112	97	
3588	0	31589	15101	97	
3589	0	31584	15088	97	
3590	0	31574	15083	97	
3591	0	31575	15076	97	
3592	0	31572	15075	97	
3593	0	31569	15069	97	
3594	0	31571	15068	97	
3595	0	31580	15074	97	
3596	0	31586	15077	97	
3597	0	31585	15077	97	
3598	0	31596	15081	97	
3599	0	31604	15088	97	
3600	0	31608	15095	97	
3601	0	31611	15095	97	
3602	0	31615	15098	97	
3603	0	31618	15102	97	
3604	0	31623	15108	97	
3605	0	31626	15108	97	
3606	0	31621	15108	97	
3607	0	31625	15109	97	
3608	0	31629	15110	97	
3609	0	31625	15110	97	
3610	0	31628	15113	97	
3611	0	31626	15114	97	
3612	0	31621	15112	97	
3613	0	31620	15109	97	
3614	0	31611	15105	97	
3615	0	31611	15104	97	
3616	0	31611	15103	97	
3617	0	31606	15103	97	
3618	0	31607	15101	97	
3619	0	31609	15099	97	
3620	0	31605	15099	97	
3621	0	31607	15099	97	
3622	0	31603	15098	97	
3623	0	31607	15098	97	
3624	0	31605	15099	97	
3625	0	31605	15101	97	
3626	0	31602	15099	97	
3627	0	31611	15102	97	
3628	0	31609	15101	97	
3629	0	31610	15101	97	
3630	0	31613	15109	97	
3631	0	31613	15108	97	
3632	0	31623	15109	97	
3633	0	31624	15113	97	
3634	0	31623	15113	97	
3635	0	31623	15115	97	
3636	0	31624	15114	97	
3637	0	31626	15119	97	
3638	0	31636	15122	97	
3639	0	31635	15124	97	
3640	0	31636	15125	97	
3641	0	31634	15129	97	
3642	0	31640	15133	97	
3643	0	31641	15131	97	
3644	0	31643	15134	97	
3645	0	31643	15135	97	
3646	0	31645	15137	97	
3647	0	31648	15138	97	
3648	0	31643	15138	97	
3649	0	31646	15141	97	
3650	0	31651	15142	97	
3651	0	31650	15142	97	
3652	0	31651	15144	97	
3653	0	31648	15144	97	
3654	0	31652	15143	97	
3655	0	31650	15148	97	
3656	0	31651	15143	97	
3657	0	31648	15149	97	
3658	0	31653	15144	97	
3659	0	31650	15146	97	
3660	0	31650	15145	97	
3661	0	31646	15149	97	
3662	0	31646	15149	97	
3663	0	31648	15148	97	
3664	0	31642	15144	97	
3665	0	31630	15131	97	
3666	0	31611	15122	97	
3667	0	31597	15106	97	
3668	0	31579	15093	97	
3669	0	31561	15084	97	
3670	0	31552	15074	97	
3671	0	31545	15064	97	
3672	0	31538	15055	97	
3673	0	31536	15051	97	
3674	0	31531	15046	97	
3675	0	31530	15041	97	
3676	0	31531	15040	97	
3677	0	31531	15042	97	
3678	0	31534	15042	97	
3679	0	31537	15046	97	
3680	0	31540	15050	97	
3681	0	31547	15049	97	
3682	0	31552	15053	97	
3683	0	31561	15059	97	
3684	0	31564	15064	97	
3685	0	31570	15066	97	
3686	0	31572	15067	97	
3687	0	31572	15069	97	
3688	0	31572	15073	97	
3689	0	31571	15074	97	
3690	0	31580	15076	97	
3691	0	31574	15079	97	
3692	0	31574	15078	97	
3693	0	31570	15077	97	
3694	0	31572	15075	97	
3695	0	31571	15079	97	
3696	0	31565	15074	97	
3697	0	31560	15068	97	
3698	0	31561	15070	97	
3699	0	31564	15070	97	
3700	0	31563	15067	97	
3701	0	31563	15068	97	
3702	0	31561	15069	97	
3703	0	31563	15071	97	
3704	0	31569	15071	97	
3705	0	31572	15073	97	
3706	0	31576	15079	97	
3707	0	31576	15074	97	
3708	0	31577	15080	97	
3709	0	31580	15081	97	
3710	0	31579	15083	97	
3711	0	31577	15083	97	
3712	0	31584	15083	97	
3713	0	31584	15085	97	
3714	0	31586	15085	97	
3715	0	31585	15084	97	
3716	0	31587	15090	97	
3717	0	31586	15091	97	
3718	0	31589	15095	97	
3719	0	31592	15096	97	
3720	0	31598	15099	97	
3721	0	31599	15101	97	
3722	0	31606	15103	97	
3723	0	31601	15105	97	
3724	0	31609	15109	97	
3725	0	31606	15110	97	
3726	0	31611	15115	97	
3727	0	31611	15120	97	
3728	0	31615	15123	97	
3729	0	31611	15122	97	
3730	0	31613	15121	97	
3731	0	31611	15117	97	
3732	0	31612	15119	97	
3733	0	31617	15121	97	
3734	0	31616	15123	97	
3735	0	31614	15119	97	
3736	0	31607	15120	97	
3737	0	31613	15119	97	
3738	0	31611	15123	97	
3739	0	31607	15120	97	
3740	0	31607	15120	97	
3741	0	31602	15118	97	
3742	0	31599	15118	97	
3743	0	31598	15120	97	
3744	0	31601	15120	97	
3745	0	31601	15118	97	
3746	0	31598	15120	97	
3747	0	31599	15120	97	
3748	0	31593	15117	97	
3749	0	31587	15113	97	
3750	0	31571	15100	97	
3751	0	31560	15089	97	
3752	0	31547	15077	97	
3753	0	31539	15076	97	
3754	0	31533	15064	97	
3755	0	31529	15058	97	
3756	0	31529	15058	97	
3757	0	31529	15054	97	
3758	0	31530	15051	97	
3759	0	31532	15050	97	
3760	0	31532	15051	97	
3761	0	31537	15051	97	
3762	0	31537	15053	97	
3763	0	31543	15055	97	
3764	0	31548	15061	97	
3765	0	31561	15059	97	
3766	0	31566	15062	97	
3767	0	31563	15067	97	
3768	0	31566	15069	97	
3769	0	31573	15071	97	
3770	0	31575	15072	97	
3771	0	31569	15074	97	
3772	0	31572	15073	97	
3773	0	31569	15077	97	
3774	0	31567	15074	97	
3775	0	31562	15076	97	
3776	0	31567	15075	97	
3777	0	31564	15079	97	
3778	0	31559	15074	97	
3779	0	31562	15077	97	
3780	0	31558	15072	97	
3781	0	31552	15072	97	
3782	0	31554	15072	97	
3783	0	31551	15073	97	
3784	0	31554	15071	97	
3785	0	31552	15074	97	
3786	0	31555	15072	97	
3787	0	31552	15072	97	
3788	0	31559	15069	97	
3789	0	31554	15070	97	
3790	0	31561	15071	97	
3791	0	31560	15071	97	
3792	0	31563	15077	97	
3793	0	31567	15077	97	
3794	0	31569	15078	97	
3795	0	31572	15081	97	
3796	0	31578	15084	97	
3797	0	31578	15083	97	
3798	0	31583	15087	97	
3799	0	31588	15084	97	
3800	0	31584	15088	97	
3801	0	31585	15089	97	
3802	0	31591	15093	97	
3803	0	31593	15096	97	
3804	0	31587	15097	97	
3805	0	31597	15100	97	
3806	0	31594	15101	97	
3807	0	31596	15103	97	
3808	0	31599	15104	97	
3809	0	31602	15109	97	
3810	0	31608	15108	97	
3811	0	31603	15111	97	
3812	0	31599	15112	97	
3813	0	31599	15111	97	
3814	0	31600	15113	97	
3815	0	31600	15111	97	
3816	0	31606	15116	97	
3817	0	31602	15121	97	
3818	0	31605	15118	97	
3819	0	31604	15118	97	
3820	0	31610	15122	97	
3821	0	31610	15124	97	
3822	0	31606	15126	97	
3823	0	31611	15124	97	
3824	0	31609	15129	97	
3825	0	31618	15127	97	
3826	0	31612	15129	97	
3827	0	31615	15127	97	
3828	0	31613	15128	97	
3829	0	31611	15123	97	
3830	0	31600	15119	97	
3831	0	31582	15109	97	
3832	0	31569	15094	97	
3833	0	31556	15082	97	
3834	0	31549	15071	97	
3835	0	31543	15065	97	
3836	0	31534	15058	97	
3837	0	31533	15050	97	
3838	0	31527	15049	97	
3839	0	31526	15042	97	
3840	0	31530	15046	97	
3841	0	31530	15045	97	
3842	0	31536	15047	97	
3843	0	31542	15045	97	
3844	0	31543	15048	97	
3845	0	31553	15053	97	
3846	0	31554	15055	97	
3847	0	31556	15062	97	
3848	0	31564	15060	97	
3849	0	31569	15068	97	
3850	0	31574	15070	97	
3851	0	31572	15073	97	
3852	0	31578	15075	97	
3853	0	31579	15075	97	
3854	0	31582	15080	97	
3855	0	31571	15084	97	
3856	0	31575	15083	97	
3857	0	31574	15085	97	
3858	0	31577	15082	97	
3859	0	31580	15085	97	
3860	0	31570	15085	97	
3861	0	31572	15082	97	
3862	0	31571	15081	97	
3863	0	31566	15074	97	
3864	0	31559	15072	97	
3865	0	31556	15075	97	
3866	0	31558	15077	97	
3867	0	31558	15069	97	
3868	0	31555	15073	97	
3869	0	31559	15072	97	
3870	0	31564	15074	97	
3871	0	31568	15078	97	
3872	0	31574	15079	97	
3873	0	31579	15083	97	
3874	0	31582	15083	97	
3875	0	31580	15093	97	
3876	0	31580	15091	97	
3877	0	31589	15092	97	
3878	0	31593	15093	97	
3879	0	31596	15095	97	
3880	0	31595	15096	97	
3881	0	31605	15098	97	
3882	0	31605	15102	97	
3883	0	31612	15106	97	
3884	0	31608	15110	97	
3885	0	31614	15114	97	
3886	0	31617	15114	97	
3887	0	31621	15119	97	
3888	0	31619	15118	97	
3889	0	31623	15116	97	
3890	0	31621	15119	97	
3891	0	31616	15120	97	
3892	0	31615	15121	97	
3893	0	31616	15126	97	
3894	0	31618	15121	97	
3895	0	31616	15124	97	
3896	0	31611	15119	97	
3897	0	31611	15124	97	
3898	0	31608	15118	97	
3899	0	31608	15118	97	
3900	0	31606	15123	97	
3901	0	31602	15123	97	
3902	0	31607	15124	97	
3903	0	31607	15121	97	
3904	0	31606	15122	97	
3905	0	31604	15124	97	
3906	0	31606	15124	97	
3907	0	31598	15120	97	
3908	0	31587	15112	97	
3909	0	31580	15108	97	
3910	0	31564	15093	97	
3911	0	31553	15082	97	
3912	0	31539	15071	97	
3913	0	31535	15059	97	
3914	0	31522	15048	97	
3915	0	31514	15036	97	
3916	0	31507	15030	97	
3917	0	31508	15025	97	
3918	0	31499	15019	97	
3919	0	31502	15015	97	
3920	0	31497	15011	97	
3921	0	31501	15013	97	
3922	0	31505	15015	97	
3923	0	31509	15012	97	
3924	0	31512	15014	97	
3925	0	31513	15016	97	
3926	0	31520	15023	97	
3927	0	31521	15021	97	
3928	0	31520	15023	97	
3929	0	31528	15022	97	
3930	0	31527	15022	97	
3931	0	31523	15025	97	
3932	0	31524	15027	97	
3933	0	31527	15032	97	
3934	0	31527	15035	97	
3935	0	31525	15035	97	
3936	0	31526	15032	97	
3937	0	31530	15034	97	
3938	0	31522	15036	97	
3939	0	31525	15037	97	
3940	0	31521	15035	97	
3941	0	31524	15033	97	
3942	0	31524	15032	97	
3943	0	31517	15031	97	
3944	0	31520	15029	97	
3945	0	31523	15027	97	
3946	0	31520	15027	97	
3947	0	31521	15027	97	
3948	0	31525	15031	97	
3949	0	31518	15026	97	
3950	0	31524	15029	97	
3951	0	31524	15028	97	
3952	0	31530	15036	97	
3953	0	31530	15036	97	
3954	0	31536	15034	97	
3955	0	31538	15038	97	
3956	0	31539	15036	97	
3957	0	31544	15044	97	
3958	0	31546	15048	97	
3959	0	31548	15049	97	
3960	0	31548	15050	97	
3961	0	31551	15056	97	
3962	0	31553	15057	97	
3963	0	31552	15056	97	
3964	0	31554	15060	97	
3965	0	31555	15064	97	
3966	0	31559	15063	97	
3967	0	31563	15064	97	
3968	0	31560	15069	97	
3969	0	31562	15070	97	
3970	0	31567	15071	97	
3971	0	31566	15072	97	
3972	0	31566	15074	97	
3973	0	31568	15074	97	
3974	0	31571	15078	97	
3975	0	31571	15080	97	
3976	0	31572	15076	97	
3977	0	31568	15082	97	
3978	0	31569	15082	97	
3979	0	31568	15083	97	
3980	0	31573	15087	97	
3981	0	31572	15086	97	
3982	0	31574	15087	97	
3983	0	31573	15092	97	
3984	0	31575	15094	97	
3985	0	31584	15096	97	
3986	0	31583	15097	97	
3987	0	31585	15099	97	
3988	0	31588	15098	97	
3989	0	31580	15095	97	
3990	0	31573	15090	97	
3991	0	31559	15080	97	
3992	0	31543	15064	97	
3993	0	31531	15057	97	
3994	0	31523	15043	97	
3995	0	31509	15035	97	
3996	0	31507	15024	97	
3997	0	31495	15016	97	
3998	0	31496	15011	97	
3999	0	31494	15008	97	
4000	0	31493	15005	97	
4001	0	31490	15003	97	
4002	0	31492	15003	97	
4003	0	31495	15001	97	
4004	0	31501	15005	97	
4005	0	31501	15005	97	
4006	0	31510	15005	97	
4007	0	31511	15010	97	
4008	0	31512	15013	97	
4009	0	31516	15017	97	
4010	0	31510	15015	97	
4011	0	31513	15014	97	
4012	0	31516	15020	97	
4013	0	31516	15022	97	
4014	0	31516	15022	97	
4015	0	31521	15021	97	
4016	0	31525	15025	97	
4017	0	31526	15033	97	
4018	0	31534	15030	97	
4019	0	31535	15036	97	
4020	0	31538	15034	97	
4021	0	31539	15038	97	
4022	0	31541	15041	97	
4023	0	31547	15039	97	
4024	0	31545	15042	97	
4025	0	31550	15040	97	
4026	0	31545	15042	97	
4027	0	31545	15038	97	
4028	0	31549	15043	97	
4029	0	31549	15044	97	
4030	0	31551	15040	97	
4031	0	31553	15045	97	
4032	0	31551	15046	97	
4033	0	31548	15044	97	
4034	0	31554	15047	97	
4035	0	31557	15050	97	
4036	0	31556	15052	97	
4037	0	31559	15053	97	
4038	0	31568	15057	97	
4039	0	31572	15055	97	
4040	0	31569	15062	97	
4041	0	31573	15059	97	
4042	0	31572	15061	97	
4043	0	31573	15067	97	
4044	0	31578	15068	97	
4045	0	31576	15072	97	
4046	0	31581	15071	97	
4047	0	31579	15077	97	
4048	0	31581	15075	97	
4049	0	31585	15081	97	
4050	0	31585	15083	97	
4051	0	31591	15086	97	
4052	0	31589	15091	97	
4053	0	31593	15090	97	
4054	0	31591	15089	97	
4055	0	31595	15095	97	
4056	0	31599	15097	97	
4057	0	31602	15097	97	
4058	0	31601	15101	97	
4059	0	31606	15096	97	
4060	0	31609	15100	97	
4061	0	31602	15104	97	
4062	0	31601	15104	97	
4063	0	31606	15107	97	
4064	0	31604	15103	97	
4065	0	31607	15106	97	
4066	0	31606	15109	97	
4067	0	31611	15110	97	
4068	0	31607	15110	97	
4069	0	31608	15111	97	
4070	0	31612	15113	97	
4071	0	31612	15115	97	
4072	0	31610	15115	97	
4073	0	31613	15115	97	
4074	0	31612	15115	97	
4075	0	31614	15119	97	
4076	0	31615	15123	97	
4077	0	31620	15122	97	
4078	0	31623	15127	97	
4079	0	31623	15130	97	
4080	0	31624	15132	97	
4081	0	31618	15130	97	
4082	0	31614	15121	97	
4083	0	31601	15111	97	
4084	0	31584	15104	97	
4085	0	31575	15090	97	
4086	0	31564	15083	97	
4087	0	31558	15073	97	
4088	0	31550	15063	97	
4089	0	31548	15059	97	
4090	0	31540	15052	97	
4091	0	31539	15049	97	
4092	0	31540	15043	97	
4093	0	31541	15041	97	
4094	0	31540	15043	97	
4095	0	31550	15042	97	
4096	0	31559	15046	97	
4097	0	31556	15045	97	
4098	0	31571	15049	97	
4099	0	31568	15052	97	
4100	0	31573	15050	97	
4101	0	31579	15055	97	
4102	0	31574	15056	97	
4103	0	31577	15059	97	
4104	0	31580	15061	97	
4105	0	31582	15063	97	
4106	0	31584	15064	97	
4107	0	31580	15064	97	
4108	0	31587	15069	97	
4109	0	31586	15069	97	
4110	0	31585	15073	97	
4111	0	31586	15071	97	
4112	0	31587	15073	97	
4113	0	31583	15068	97	
4114	0	31587	15075	97	
4115	0	31585	15076	97	
4116	0	31587	15073	97	
4117	0	31585	15076	97	
4118	0	31582	15072	97	
4119	0	31588	15072	97	
4120	0	31585	15070	97	
4121	0	31591	15074	97	
4122	0	31596	15077	97	
4123	0	31598	15075	97	
4124	0	31597	15081	97	
4125	0	31598	15079	97	
4126	0	31607	15082	97	
4127	0	31604	15084	97	
4128	0	31612	15085	97	
4129	0	31614	15089	97	
4130	0	31616	15091	97	
4131	0	31620	15093	97	
4132	0	31625	15094	97	
4133	0	31626	15092	97	
4134	0	31625	15101	97	
4135	0	31628	15103	97	
4136	0	31632	15105	97	
4137	0	31634	15106	97	
4138	0	31637	15107	97	
4139	0	31638	15110	97	
4140	0	31642	15110	97	
4141	0	31637	15118	97	
4142	0	31642	15119	97	
4143	0	31643	15120	97	
4144	0	31644	15119	97	
4145	0	31645	15123	97	
4146	0	31644	15126	97	
4147	0	31649	15123	97	
4148	0	31649	15124	97	
4149	0	31647	15126	97	
4150	0	31651	15130	97	
4151	0	31647	15132	97	
4152	0	31648	15133	97	
4153	0	31647	15133	97	
4154	0	31649	15138	97	
4155	0	31657	15138	97	
4156	0	31650	15137	97	
4157	0	31651	15135	97	
4158	0	31651	15137	97	
4159	0	31658	15139	97	
4160	0	31654	15142	97	
4161	0	31653	15140	97	
4162	0	31654	15145	97	
4163	0	31653	15146	97	
4164	0	31657	15149	97	
4165	0	31660	15150	97	
4166	0	31660	15147	97	
4167	0	31654	15145	97	
4168	0	31662	15150	97	
4169	0	31657	15154	97	
4170	0	31660	15153	97	
4171	0	31660	15156	97	
4172	0	31667	15157	97	
4173	0	31663	15158	97	
4174	0	31659	15160	97	
4175	0	31659	15157	97	
4176	0	31647	15151	97	
4177	0	31634	15144	97	
4178	0	31623	15135	97	
4179	0	31609	15120	97	
4180	0	31596	15108	97	
4181	0	31586	15100	97	
4182	0	31583	15091	97	
4183	0	31582	15086	97	
4184	0	31577	15084	97	
4185	0	31576	15079	98	
4186	0	31583	15076	98	
4187	0	31578	15071	98	
4188	0	31581	15073	98	
4189	0	31586	15074	98	
4190	0	31589	15075	98	
4191	0	31596	15074	98	
4192	0	31600	15081	98	
4193	0	31601	15079	98	
4194	0	31610	15081	98	
4195	0	31610	15085	98	
4196	0	31623	15088	98	
4197	0	31626	15089	98	
4198	0	31630	15098	98	
4199	0	31631	15095	98	
4200	0	31633	15100	98	
4201	0	31634	15101	98	
4202	0	31640	15106	98	
4203	0	31641	15106	98	
4204	0	31636	15107	98	
4205	0	31636	15108	98	
4206	0	31637	15107	98	
4207	0	31634	15105	98	
4208	0	31634	15101	98	
4209	0	31627	15101	98	
4210	0	31620	15101	98	
4211	0	31613	15095	98	
4212	0	31620	15095	98	
4213	0	31618	15094	98	
4214	0	31617	15095	98	
4215	0	31618	15096	98	
4216	0	31619	15099	98	
4217	0	31619	15096	98	
4218	0	31626	15098	98	
4219	0	31625	15100	98	
4220	0	31633	15100	98	
4221	0	31634	15105	98	
4222	0	31632	15108	98	
4223	0	31640	15107	98	
4224	0	31647	15112	98	
4225	0	31645	15112	98	
4226	0	31652	15115	98	
4227	0	31654	15118	98	
4228	0	31655	15120	98	
4229	0	31659	15119	98	
4230	0	31659	15121	98	
4231	0	31658	15125	98	
4232	0	31666	15123	98	
4233	0	31665	15128	98	
4234	0	31664	15130	98	
4235	0	31669	15130	98	
4236	0	31665	15132	98	
4237	0	31668	15132	98	
4238	0	31669	15136	98	
4239	0	31676	15138	98	
4240	0	31674	15137	98	
4241	0	31673	15139	98	
4242	0	31675	15142	98	
4243	0	31674	15142	98	
4244	0	31676	15143	98	
4245	0	31679	15147	98	
4246	0	31680	15147	98	
4247	0	31682	15147	98	
4248	0	31678	15147	98	
4249	0	31679	15147	98	
4250	0	31679	15150	98	
4251	0	31681	15149	98	
4252	0	31678	15149	98	
4253	0	31671	15149	98	
4254	0	31675	15148	98	
4255	0	31676	15153	98	
4256	0	31676	15150	98	
4257	0	31679	15151	98	
4258	0	31678	15157	98	
4259	0	31677	15150	98	
4260	0	31671	15145	98	
4261	0	31661	15144	98	
4262	0	31647	15134	98	
4263	0	31635	15122	98	
4264	0	31614	15106	98	
4265	0	31608	15097	98	
4266	0	31595	15084	98	
4267	0	31587	15077	98	
4268	0	31580	15070	98	
4269	0	31577	15062	98	
4270	0	31575	15059	98	
4271	0	31571	15051	98	
4272	0	31566	15047	98	
4273	0	31570	15046	98	
4274	0	31572	15047	98	
4275	0	31575	15047	98	
4276	0	31584	15048	98	
4277	0	31588	15052	98	
4278	0	31598	15056	98	
4279	0	31599	15058	98	
4280	0	31603	15059	98	
4281	0	31601	15060	98	
4282	0	31604	15063	98	
4283	0	31606	15067	98	
4284	0	31604	15066	98	
4285	0	31610	15068	98	
4286	0	31605	15073	98	
4287	0	31613	15072	98	
4288	0	31607	15072	98	
4289	0	31615	15077	98	
4290	0	31612	15074	98	
4291	0	31608	15075	98	
4292	0	31607	15075	98	
4293	0	31613	15075	98	
4294	0	31611	15070	98	
4295	0	31605	15071	98	
4296	0	31609	15073	98	
4297	0	31606	15071	98	
4298	0	31606	15074	98	
4299	0	31604	15071	98	
4300	0	31607	15075	98	
4301	0	31603	15070	98	
4302	0	31610	15072	98	
4303	0	31607	15070	98	
4304	0	31610	15072	98	
4305	0	31611	15071	98	
4306	0	31615	15076	98	
4307	0	31616	15078	98	
4308	0	31623	15077	98	
4309	0	31623	15077	98	
4310	0	31622	15080	98	
4311	0	31623	15083	98	
4312	0	31628	15082	98	
4313	0	31629	15083	98	
4314	0	31632	15086	98	
4315	0	31629	15086	98	
4316	0	31634	15088	98	
4317	0	31632	15085	98	
4318	0	31632	15090	98	
4319	0	31634	15094	98	
4320	0	31636	15096	98	
4321	0	31642	15095	98	
4322	0	31638	15101	98	
4323	0	31643	15101	98	
4324	0	31640	15104	98	
4325	0	31643	15102	98	
4326	0	31645	15104	98	
4327	0	31649	15107	98	
4328	0	31649	15110	98	
4329	0	31646	15110	98	
4330	0	31649	15110	98	
4331	0	31649	15112	98	
4332	0	31654	15120	98	
4333	0	31650	15118	98	
4334	0	31650	15116	98	
4335	0	31656	15119	98	
4336	0	31652	15117	98	
4337	0	31651	15122	98	
4338	0	31654	15119	98	
4339	0	31652	15118	98	
4340	0	31654	15118	98	
4341	0	31656	15125	98	
4342	0	31653	15128	98	
4343	0	31662	15129	98	
4344	0	31656	15130	98	
4345	0	31662	15133	98	
4346	0	31664	15137	98	
4347	0	31659	15137	98	
4348	0	31657	15133	98	
4349	0	31641	15119	98	
4350	0	31623	15107	98	
4351	0	31604	15094	98	
4352	0	31594	15075	98	
4353	0	31576	15065	98	
4354	0	31568	15055	98	
4355	0	31557	15045	98	
4356	0	31549	15036	98	
4357	0	31542	15031	98	
4358	0	31544	15023	98	
4359	0	31543	15017	98	
4360	0	31544	15018	98	
4361	0	31545	15016	98	
4362	0	31552	15021	98	
4363	0	31556	15021	98	
4364	0	31562	15020	98	
4365	0	31565	15028	98	
4366	0	31569	15030	98	
4367	0	31577	15030	98	
4368	0	31581	15034	98	
4369	0	31579	15036	98	
4370	0	31581	15038	98	
4371	0	31583	15040	98	
4372	0	31586	15040	98	
4373	0	31585	15045	98	
4374	0	31587	15042	98	
4375	0	31593	15047	98	
4376	0	31596	15046	98	
4377	0	31590	15052	98	
4378	0	31594	15049	98	
4379	0	31596	15050	98	
4380	0	31595	15051	98	
4381	0	31594	15050	98	
4382	0	31596	15051	98	
4383	0	31595	15051	98	
4384	0	31592	15050	98	
4385	0	31595	15048	98	
4386	0	31593	15050	98	
4387	0	31595	15047	98	
4388	0	31595	15050	98	
4389	0	31593	15050	98	
4390	0	31598	15054	98	
4391	0	31599	15052	98	
4392	0	31603	15049	98	
4393	0	31604	15053	98	
4394	0	31607	15059	98	
4395	0	31604	15061	98	
4396	0	31614	15061	98	
4397	0	31616	15068	98	
4398	0	31618	15068	98	
4399	0	31620	15073	98	
4400	0	31621	15075	98	
4401	0	31623	15073	98	
4402	0	31625	15076	98	
4403	0	31627	15077	98	
4404	0	31629	15082	98	
4405	0	31632	15083	98	
4406	0	31636	15085	98	
4407	0	31633	15087	98	
4408	0	31633	15090	98	
4409	0	31635	15089	98	
4410	0	31637	15094	98	
4411	0	31640	15093	98	
4412	0	31633	15095	98	
4413	0	31635	15094	98	
4414	0	31644	15096	98	
4415	0	31640	15097	98	
4416	0	31643	15100	98	
4417	0	31642	15099	98	
4418	0	31644	15100	98	
4419	0	31634	15104	98	
4420	0	31636	15101	98	
4421	0	31637	15100	98	
4422	0	31638	15103	98	
4423	0	31639	15104	98	
4424	0	31633	15100	98	
4425	0	31635	15105	98	
4426	0	31641	15108	98	
4427	0	31642	15110	98	
4428	0	31646	15110	98	
4429	0	31641	15112	98	
4430	0	31643	15117	98	
4431	0	31647	15117	98	
4432	0	31654	15122	98	
4433	0	31652	15122	98	
4434	0	31654	15127	98	
4435	0	31655	15129	98	
4436	0	31657	15129	98	
4437	0	31651	15132	98	
4438	0	31643	15124	98	
4439	0	31628	15114	98	
4440	0	31616	15102	98	
4441	0	31596	15090	98	
4442	0	31586	15076	98	
4443	0	31575	15063	98	
4444	0	31561	15053	98	
4445	0	31554	15044	98	
4446	0	31550	15038	98	
4447	0	31549	15033	98	
4448	0	31546	15031	98	
4449	0	31552	15027	98	
4450	0	31545	15023	98	
4451	0	31553	15027	98	
4452	0	31560	15025	98	
4453	0	31562	15028	98	
4454	0	31565	15031	98	
4455	0	31577	15033	98	
4456	0	31576	15036	98	
4457	0	31582	15039	98	
4458	0	31580	15042	98	
4459	0	31579	15040	98	
4460	0	31587	15046	98	
4461	0	31593	15049	98	
4462	0	31594	15049	98	
4463	0	31594	15047	98	
4464	0	31599	15055	98	
4465	0	31594	15058	98	
4466	0	31596	15061	98	
4467	0	31594	15057	98	
4468	0	31593	15057	98	
4469	0	31589	15057	98	
4470	0	31595	15061	98	
4471	0	31593	15057	98	
4472	0	31593	15055	98	
4473	0	31592	15057	98	
4474	0	31594	15055	98	
4475	0	31598	15060	98	
4476	0	31598	15054	98	
4477	0	31596	15058	98	
4478	0	31601	15058	98	
4479	0	31597	15056	98	
4480	0	31600	15060	98	
4481	0	31598	15058	98	
4482	0	31600	15061	98	
4483	0	31606	15063	98	
4484	0	31613	15066	98	
4485	0	31614	15065	98	
4486	0	31615	15066	98	
4487	0	31620	15071	98	
4488	0	31616	15072	98	
4489	0	31621	15075	98	
4490	0	31620	15076	98	
4491	0	31623	15076	98	
4492	0	31622	15080	98	
4493	0	31627	15082	98	
4494	0	31634	15086	98	
4495	0	31632	15086	98	
4496	0	31634	15087	98	
4497	0	31635	15091	98	
4498	0	31636	15093	98	
4499	0	31634	15096	98	
4500	0	31641	15093	98	
4501	0	31634	15094	98	
4502	0	31638	15100	98	
4503	0	31636	15099	98	
4504	0	31634	15099	98	
4505	0	31641	15100	98	
4506	0	31633	15102	98	
4507	0	31637	15105	98	
4508	0	31638	15104	98	
4509	0	31639	15105	98	
4510	0	31641	15105	98	
4511	0	31640	15107	98	
4512	0	31641	15111	98	
4513	0	31647	15113	98	
4514	0	31645	15111	98	
4515	0	31641	15109	98	
4516	0	31643	15114	98	
4517	0	31639	15110	98	
4518	0	31642	15112	98	
4519	0	31644	15117	98	
4520	0	31640	15117	98	
4521	0	31647	15119	98	
4522	0	31645	15124	98	
4523	0	31652	15126	98	
4524	0	31655	15128	98	
4525	0	31654	15128	98	
4526	0	31643	15124	98	
4527	0	31636	15117	98	
4528	0	31625	15107	98	
4529	0	31606	15094	98	
4530	0	31592	15081	98	
4531	0	31582	15074	98	
4532	0	31568	15062	98	
4533	0	31563	15054	98	
4534	0	31556	15047	98	
4535	0	31557	15039	98	
4536	0	31550	15034	98	
4537	0	31551	15033	98	
4538	0	31556	15032	98	
4539	0	31555	15035	98	
4540	0	31560	15033	98	
4541	0	31569	15034	98	
4542	0	31571	15038	98	
4543	0	31577	15041	98	
4544	0	31580	15043	98	
4545	0	31582	15044	98	
4546	0	31592	15049	98	
4547	0	31590	15051	98	
4548	0	31597	15056	98	
4549	0	31598	15058	98	
4550	0	31605	15062	98	
4551	0	31601	15065	98	
4552	0	31606	15064	98	
4553	0	31607	15068	98	
4554	0	31603	15070	98	
4555	0	31607	15069	98	
4556	0	31605	15066	98	
4557	0	31600	15064	98	
4558	0	31596	15066	98	
4559	0	31589	15064	98	
4560	0	31590	15061	98	
4561	0	31589	15060	98	
4562	0	31589	15056	98	
4563	0	31584	15057	98	
4564	0	31587	15058	98	
4565	0	31585	15054	98	
4566	0	31584	15058	98	
4567	0	31587	15057	98	
4568	0	31593	15061	98	
4569	0	31597	15061	98	
4570	0	31602	15063	98	
4571	0	31604	15066	98	
4572	0	31605	15069	98	
4573	0	31610	15076	98	
4574	0	31619	15073	98	
4575	0	31617	15078	98	
4576	0	31628	15081	98	
4577	0	31631	15086	98	
4578	0	31634	15088	98	
4579	0	31634	15091	98	
4580	0	31635	15094	98	
4581	0	31639	15090	98	
4582	0	31641	15097	98	
4583	0	31642	15098	98	
4584	0	31646	15096	98	
4585	0	31647	15101	98	
4586	0	31645	15101	98	
4587	0	31648	15100	98	
4588	0	31647	15104	98	
4589	0	31642	15104	98	
4590	0	31644	15106	98	
4591	0	31641	15101	98	
4592	0	31644	15100	98	
4593	0	31643	15105	98	
4594	0	31637	15104	98	
4595	0	31637	15105	98	
4596	0	31637	15110	98	
4597	0	31635	15108	98	
4598	0	31638	15109	98	
4599	0	31633	15110	98	
4600	0	31632	15107	98	
4601	0	31635	15109	98	
4602	0	31631	15110	98	
4603	0	31634	15103	98	
4604	0	31631	15105	98	
4605	0	31631	15111	98	
4606	0	31632	15111	98	
4607	0	31630	15111	98	
4608	0	31637	15117	98	
4609	0	31636	15114	98	
4610	0	31633	15117	98	
4611	0	31631	15114	98	
4612	0	31618	15106	98	
4613	0	31605	15095	98	
4614	0	31582	15082	98	
4615	0	31566	15065	98	
4616	0	31550	15050	98	
4617	0	31542	15037	98	
4618	0	31529	15029	98	
4619	0	31522	15022	98	
4620	0	31513	15009	98	
4621	0	31513	15004	98	
4622	0	31507	15001	98	
4623	0	31507	14997	98	
4624	0	31507	14996	98	
4625	0	31513	14995	98	
4626	0	31511	14997	98	
4627	0	31522	14999	98	
4628	0	31526	15003	98	
4629	0	31537	15008	98	
4630	0	31537	15011	98	
4631	0	31545	15014	98	
4632	0	31548	15015	98	
4633	0	31545	15018	98	
4634	0	31548	15020	98	
4635	0	31554	15019	98	
4636	0	31553	15021	98	
4637	0	31551	15023	98	
4638	0	31558	15025	98	
4639	0	31551	15026	98	
4640	0	31551	15025	98	
4641	0	31550	15027	98	
4642	0	31553	15030	98	
4643	0	31550	15024	98	
4644	0	31551	15029	98	
4645	0	31551	15026	98	
4646	0	31554	15029	98	
4647	0	31551	15024	98	
4648	0	31543	15027	98	
4649	0	31550	15025	98	
4650	0	31548	15026	98	
4651	0	31550	15024	98	
4652	0	31549	15022	98	
4653	0	31553	15027	98	
4654	0	31552	15028	98	
4655	0	31560	15027	98	
4656	0	31556	15030	98	
4657	0	31560	15034	98	
4658	0	31566	15034	98	
4659	0	31563	15037	98	
4660	0	31566	15042	98	
4661	0	31572	15043	98	
4662	0	31579	15048	98	
4663	0	31582	15051	98	
4664	0	31588	15054	98	
4665	0	31589	15056	98	
4666	0	31589	15056	98	
4667	0	31592	15058	98	
4668	0	31598	15063	98	
4669	0	31597	15065	98	
4670	0	31598	15071	98	
4671	0	31602	15071	98	
4672	0	31605	15075	98	
4673	0	31604	15080	98	
4674	0	31608	15080	98	
4675	0	31612	15083	98	
4676	0	31614	15085	98	
4677	0	31609	15088	98	
4678	0	31612	15089	98	
4679	0	31614	15090	98	
4680	0	31617	15094	98	
4681	0	31618	15095	98	
4682	0	31619	15093	98	
4683	0	31623	15092	98	
4684	0	31623	15095	98	
4685	0	31618	15095	98	
4686	0	31615	15095	98	
4687	0	31620	15096	98	
4688	0	31615	15098	98	
4689	0	31612	15100	98	
4690	0	31615	15103	98	
4691	0	31619	15107	98	
4692	0	31624	15106	98	
4693	0	31616	15107	98	
4694	0	31622	15108	98	
4695	0	31612	15104	98	
4696	0	31609	15095	98	
4697	0	31591	15090	98	
4698	0	31580	15078	98	
4699	0	31561	15061	98	
4700	0	31546	15049	98	
4701	0	31531	15039	98	
4702	0	31527	15030	98	
4703	0	31519	15020	98	
4704	0	31512	15015	98	
4705	0	31517	15011	98	
4706	0	31511	15006	98	
4707	0	31511	15005	98	
4708	0	31513	15002	98	
4709	0	31516	15004	98	
4710	0	31521	15008	98	
4711	0	31522	15009	98	
4712	0	31532	15011	98	
4713	0	31542	15017	98	
4714	0	31547	15024	98	
4715	0	31550	15026	98	
4716	0	31558	15029	98	
4717	0	31566	15035	98	
4718	0	31565	15036	98	
4719	0	31568	15039	98	
4720	0	31572	15043	98	
4721	0	31574	15045	98	
4722	0	31574	15048	98	
4723	0	31577	15052	98	
4724	0	31580	15053	98	
4725	0	31580	15052	98	
4726	0	31578	15054	98	
4727	0	31574	15050	98	
4728	0	31575	15055	98	
4729	0	31575	15058	98	
4730	0	31575	15056	98	
4731	0	31575	15055	98	
4732	0	31574	15054	98	
4733	0	31570	15058	98	
4734	0	31579	15054	98	
4735	0	31573	15052	98	
4736	0	31574	15054	98	
4737	0	31576	15055	98	
4738	0	31579	15053	98	
4739	0	31580	15056	98	
4740	0	31583	15056	98	
4741	0	31580	15058	98	
4742	0	31586	15060	98	
4743	0	31590	15061	98	
4744	0	31589	15068	98	
4745	0	31598	15065	98	
4746	0	31597	15072	98	
4747	0	31599	15070	98	
4748	0	31605	15074	98	
4749	0	31605	15073	98	
4750	0	31610	15077	98	
4751	0	31608	15084	98	
4752	0	31612	15081	98	
4753	0	31609	15084	98	
4754	0	31612	15085	98	
4755	0	31616	15088	98	
4756	0	31617	15093	98	
4757	0	31619	15091	98	
4758	0	31618	15097	98	
4759	0	31621	15098	98	
4760	0	31620	15101	98	
4761	0	31625	15099	98	
4762	0	31624	15102	98	
4763	0	31622	15100	98	
4764	0	31624	15106	98	
4765	0	31626	15108	98	
4766	0	31622	15106	98	
4767	0	31628	15107	98	
4768	0	31628	15110	98	
4769	0	31623	15112	98	
4770	0	31629	15113	98	
4771	0	31630	15114	98	
4772	0	31630	15114	98	
4773	0	31631	15118	98	
4774	0	31629	15119	98	
4775	0	31628	15122	98	
4776	0	31631	15127	98	
4777	0	31631	15124	98	
4778	0	31634	15126	98	
4779	0	31633	15121	98	
4780	0	31628	15123	98	
4781	0	31614	15115	98	
4782	0	31600	15103	98	
4783	0	31586	15093	98	
4784	0	31566	15082	98	
4785	0	31564	15073	97	
4786	0	31554	15067	97	
4787	0	31541	15057	97	
4788	0	31537	15052	97	
4789	0	31534	15049	97	
4790	0	31542	15042	97	
4791	0	31541	15044	97	
4792	0	31540	15040	97	
4793	0	31544	15043	97	
4794	0	31548	15040	97	
4795	0	31549	15045	97	
4796	0	31552	15046	97	
4797	0	31555	15046	97	
4798	0	31553	15048	97	
4799	0	31565	15053	97	
4800	0	31565	15054	97	
4801	0	31573	15062	97	
4802	0	31574	15065	97	
4803	0	31581	15070	97	
4804	0	31579	15069	97	
4805	0	31582	15073	97	
4806	0	31583	15072	97	
4807	0	31583	15078	97	
4808	0	31586	15076	97	
4809	0	31583	15078	97	
4810	0	31581	15078	97	
4811	0	31579	15077	97	
4812	0	31579	15076	97	
4813	0	31580	15077	97	
4814	0	31572	15074	97	
4815	0	31566	15070	97	
4816	0	31565	15073	97	
4817	0	31566	15070	97	
4818	0	31562	15070	97	
4819	0	31564	15070	97	
4820	0	31564	15070	97	
4821	0	31565	15075	97	
4822	0	31568	15075	97	
4823	0	31567	15074	97	
4824	0	31566	15075	97	
4825	0	31569	15076	97	
4826	0	31574	15076	97	
4827	0	31577	15079	97	
4828	0	31581	15082	97	
4829	0	31580	15084	97	
4830	0	31583	15083	97	
4831	0	31589	15089	97	
4832	0	31587	15092	97	
4833	0	31592	15090	97	
4834	0	31595	15092	97	
4835	0	31591	15094	97	
4836	0	31595	15095	97	
4837	0	31602	15100	97	
4838	0	31602	15099	97	
4839	0	31603	15099	97	
4840	0	31603	15105	97	
4841	0	31599	15103	97	
4842	0	31606	15108	97	
4843	0	31604	15108	97	
4844	0	31610	15110	97	
4845	0	31611	15111	97	
4846	0	31608	15112	97	
4847	0	31607	15111	97	
4848	0	31613	15116	97	
4849	0	31608	15114	97	
4850	0	31606	15114	97	
4851	0	31609	15118	97	
4852	0	31617	15118	97	
4853	0	31616	15120	97	
4854	0	31610	15121	97	
4855	0	31618	15123	97	
4856	0	31613	15121	97	
4857	0	31613	15123	97	
4858	0	31610	15121	97	
4859	0	31604	15117	97	
4860	0	31589	15108	97	
4861	0	31582	15100	97	
4862	0	31566	15090	97	
4863	0	31560	15088	97	
4864	0	31548	15077	97	
4865	0	31545	15070	97	
4866	0	31542	15066	97	
4867	0	31532	15063	97	
4868	0	31535	15059	97	
4869	0	31537	15057	97	
4870	0	31543	15058	97	
4871	0	31542	15060	97	
4872	0	31541	15059	97	
4873	0	31543	15063	97	
4874	0	31546	15064	97	
4875	0	31547	15065	97	
4876	0	31549	15067	97	
4877	0	31556	15066	97	
4878	0	31554	15072	97	
4879	0	31559	15075	97	
4880	0	31563	15076	97	
4881	0	31562	15079	97	
4882	0	31567	15083	97	
4883	0	31566	15083	97	
4884	0	31569	15085	97	
4885	0	31569	15087	97	
4886	0	31567	15092	97	
4887	0	31563	15091	97	
4888	0	31566	15088	97	
4889	0	31562	15089	97	
4890	0	31561	15087	97	
4891	0	31561	15084	97	
4892	0	31553	15084	97	
4893	0	31546	15084	97	
4894	0	31551	15080	97	
4895	0	31544	15078	97	
4896	0	31538	15080	97	
4897	0	31543	15083	97	
4898	0	31539	15080	97	
4899	0	31542	15078	97	
4900	0	31543	15080	97	
4901	0	31542	15083	97	
4902	0	31549	15088	97	
4903	0	31543	15084	97	
4904	0	31544	15089	97	
4905	0	31549	15089	97	
4906	0	31549	15092	97	
4907	0	31558	15094	97	
4908	0	31556	15097	97	
4909	0	31559	15097	97	
4910	0	31560	15099	97	
4911	0	31560	15097	97	
4912	0	31563	15099	97	
4913	0	31564	15103	97	
4914	0	31566	15104	97	
4915	0	31571	15104	97	
4916	0	31569	15108	97	
4917	0	31570	15109	97	
4918	0	31570	15110	97	
4919	0	31568	15114	97	
4920	0	31572	15113	97	
4921	0	31572	15111	97	
4922	0	31572	15110	97	
4923	0	31573	15113	97	
4924	0	31568	15114	97	
4925	0	31570	15117	97	
4926	0	31565	15115	97	
4927	0	31568	15115	97	
4928	0	31571	15115	97	
4929	0	31567	15114	97	
4930	0	31568	15118	97	
4931	0	31574	15122	97	
4932	0	31573	15120	97	
4933	0	31570	15121	97	
4934	0	31573	15123	97	
4935	0	31574	15122	97	
4936	0	31567	15120	97	
4937	0	31557	15117	97	
4938	0	31551	15108	97	
4939	0	31540	15101	97	
4940	0	31530	15091	97	
4941	0	31519	15084	97	
4942	0	31508	15077	97	
4943	0	31508	15068	97	
4944	0	31501	15067	97	
4945	0	31496	15061	97	
4946	0	31489	15058	97	
4947	0	31488	15057	97	
4948	0	31493	15059	97	
4949	0	31497	15057	97	
4950	0	31496	15057	97	
4951	0	31500	15057	97	
4952	0	31501	15059	97	
4953	0	31499	15064	97	
4954	0	31501	15063	97	
4955	0	31506	15067	97	
4956	0	31506	15068	97	
4957	0	31512	15068	97	
4958	0	31505	15069	97	
4959	0	31509	15071	97	
4960	0	31507	15070	97	
4961	0	31503	15072	97	
4962	0	31504	15078	97	
4963	0	31507	15076	97	
4964	0	31507	15079	97	
4965	0	31507	15080	97	
4966	0	31506	15081	97	
4967	0	31506	15082	97	
4968	0	31505	15081	97	
4969	0	31507	15082	97	
4970	0	31501	15080	97	
4971	0	31503	15079	97	
4972	0	31499	15082	97	
4973	0	31498	15080	97	
4974	0	31491	15080	97	
4975	0	31492	15079	97	
4976	0	31495	15076	97	
4977	0	31490	15079	97	
4978	0	31491	15080	97	
4979	0	31495	15081	97	
4980	0	31492	15084	97	
4981	0	31490	15082	97	
4982	0	31490	15085	97	
4983	0	31496	15087	97	
4984	0	31498	15086	97	
4985	0	31491	15087	97	
4986	0	31497	15090	97	
4987	0	31499	15090	97	
4988	0	31499	15092	97	
4989	0	31501	15095	97	
4990	0	31497	15094	97	
4991	0	31499	15092	97	
4992	0	31507	15098	97	
4993	0	31503	15099	97	
4994	0	31502	15099	97	
4995	0	31507	15100	97	
4996	0	31505	15099	97	
4997	0	31504	15102	97	
4998	0	31506	15102	97	
4999	0	31506	15105	97	
5000	0	31508	15103	97	
5001	0	31509	15105	97	
5002	0	31509	15108	97	
5003	0	31508	15109	97	
5004	0	31509	15114	97	
5005	0	31511	15115	97	
5006	0	31512	15115	97	
5007	0	31510	15115	97	
5008	0	31511	15119	97	
5009	0	31508	15116	97	
5010	0	31512	15120	97	
5011	0	31511	15121	97	
5012	0	31510	15125	97	
5013	0	31514	15125	97	
5014	0	31516	15127	97	
5015	0	31514	15127	97	
5016	0	31511	15131	97	
5017	0	31511	15125	97	
5018	0	31505	15123	97	
5019	0	31499	15116	97	
5020	0	31491	15110	97	
5021	0	31478	15104	97	
5022	0	31470	15097	97	
5023	0	31466	15089	97	
5024	0	31451	15083	97	
5025	0	31453	15079	97	
5026	0	31448	15077	97	
5027	0	31448	15075	97	
5028	0	31449	15078	97	
5029	0	31454	15078	97	
5030	0	31458	15075	97	
5031	0	31451	15075	97	
5032	0	31450	15076	97	
5033	0	31452	15076	97	
5034	0	31453	15080	97	
5035	0	31452	15080	97	
5036	0	31451	15078	97	
5037	0	31453	15076	97	
5038	0	31451	15080	97	
5039	0	31446	15078	97	
5040	0	31445	15079	97	
5041	0	31443	15079	97	
5042	0	31440	15082	97	
5043	0	31440	15078	97	
5044	0	31441	15084	97	
5045	0	31439	15083	97	
5046	0	31442	15085	97	
5047	0	31435	15086	97	
5048	0	31440	15081	97	
5049	0	31435	15084	97	
5050	0	31431	15085	97	
5051	0	31435	15082	97	
5052	0	31433	15087	97	
5053	0	31429	15083	97	
5054	0	31428	15085	97	
5055	0	31431	15082	97	
5056	0	31430	15082	97	
5057	0	31428	15088	97	
5058	0	31428	15087	97	
5059	0	31434	15087	97	
5060	0	31430	15086	97	
5061	0	31428	15090	97	
5062	0	31432	15087	97	
5063	0	31435	15088	97	
5064	0	31434	15088	97	
5065	0	31431	15088	97	
5066	0	31431	15091	97	
5067	0	31433	15093	97	
5068	0	31434	15094	97	
5069	0	31438	15095	97	
5070	0	31438	15098	97	
5071	0	31436	15095	97	
5072	0	31437	15095	97	
5073	0	31439	15099	97	
5074	0	31440	15100	97	
5075	0	31438	15102	97	
5076	0	31441	15105	97	
5077	0	31447	15104	97	
5078	0	31447	15104	97	
5079	0	31448	15109	97	
5080	0	31448	15106	97	
5081	0	31449	15108	97	
5082	0	31447	15113	97	
5083	0	31451	15114	97	
5084	0	31454	15117	97	
5085	0	31452	15116	97	
5086	0	31452	15120	97	
5087	0	31452	15121	97	
5088	0	31457	15120	97	
5089	0	31457	15122	97	
5090	0	31451	15120	97	
5091	0	31451	15125	97	
5092	0	31451	15122	97	
5093	0	31453	15128	97	
5094	0	31456	15126	97	
5095	0	31454	15130	97	
5096	0	31452	15130	97	
5097	0	31456	15132	97	
5098	0	31455	15134	97	
5099	0	31451	15134	97	
5100	0	31458	15130	97	
5101	0	31454	15134	97	
5102	0	31450	15132	97	
5103	0	31452	15131	97	
5104	0	31454	15138	97	
5105	0	31449	15136	97	
5106	0	31449	15135	97	
5107	0	31446	15135	97	
5108	0	31445	15135	97	
5109	0	31440	15131	97	
5110	0	31430	15125	97	
5111	0	31417	15120	97	
5112	0	31411	15113	97	
5113	0	31406	15111	97	
5114	0	31402	15105	97	
5115	0	31396	15101	97	
5116	0	31394	15094	97	
5117	0	31396	15093	97	
5118	0	31392	15093	97	
5119	0	31393	15093	97	
5120	0	31393	15095	97	
5121	0	31396	15096	97	
5122	0	31401	15096	97	
5123	0	31396	15098	97	
5124	0	31402	15100	97	
5125	0	31403	15101	97	
5126	0	31411	15100	97	
5127	0	31409	15104	97	
5128	0	31412	15108	97	
5129	0	31412	15106	97	
5130	0	31413	15109	97	
5131	0	31414	15110	97	
5132	0	31410	15112	97	
5133	0	31407	15110	97	
5134	0	31413	15112	97	
5135	0	31415	15118	97	
5136	0	31414	15114	97	
5137	0	31412	15116	97	
5138	0	31407	15114	97	
5139	0	31407	15115	97	
5140	0	31405	15111	97	
5141	0	31400	15113	97	
5142	0	31409	15112	97	
5143	0	31398	15113	97	
5144	0	31404	15106	97	
5145	0	31392	15110	97	
5146	0	31396	15111	97	
5147	0	31394	15112	97	
5148	0	31398	15109	97	
5149	0	31397	15106	97	
5150	0	31393	15103	97	
5151	0	31394	15110	97	
5152	0	31390	15109	97	
5153	0	31388	15107	97	
5154	0	31392	15107	97	
5155	0	31389	15107	97	
5156	0	31386	15106	97	
5157	0	31387	15105	97	
5158	0	31386	15106	97	
5159	0	31387	15107	97	
5160	0	31388	15114	97	
5161	0	31390	15109	97	
5162	0	31391	15113	97	
5163	0	31390	15113	97	
5164	0	31389	15120	97	
5165	0	31390	15114	97	
5166	0	31394	15118	97	
5167	0	31400	15117	97	
5168	0	31401	15119	97	
5169	0	31403	15124	97	
5170	0	31403	15126	97	
5171	0	31404	15130	97	
5172	0	31403	15132	97	
5173	0	31401	15129	97	
5174	0	31402	15129	97	
5175	0	31398	15128	97	
5176	0	31402	15129	97	
5177	0	31401	15130	97	
5178	0	31406	15135	97	
5179	0	31403	15133	97	
5180	0	31405	15132	97	
5181	0	31404	15136	97	
5182	0	31411	15139	97	
5183	0	31404	15142	97	
5184	0	31410	15137	97	
5185	0	31411	15141	97	
5186	0	31409	15142	97	
5187	0	31408	15141	97	
5188	0	31406	15146	97	
5189	0	31404	15146	97	
5190	0	31407	15147	97	
5191	0	31406	15140	97	
5192	0	31403	15141	97	
5193	0	31402	15144	97	
5194	0	31397	15146	97	
5195	0	31398	15147	97	
5196	0	31399	15145	97	
5197	0	31403	15146	97	
5198	0	31399	15145	97	
5199	0	31403	15145	97	
5200	0	31400	15148	97	
5201	0	31399	15148	97	
5202	0	31395	15147	97	
5203	0	31392	15141	97	
5204	0	31385	15134	97	
5205	0	31374	15130	97	
5206	0	31367	15125	97	
5207	0	31370	15121	97	
5208	0	31365	15118	97	
5209	0	31362	15113	97	
5210	0	31365	15108	97	
5211	0	31358	15109	97	
5212	0	31359	15106	97	
5213	0	31358	15102	97	
5214	0	31360	15104	97	
5215	0	31367	15100	97	
5216	0	31369	15102	97	
5217	0	31372	15107	97	
5218	0	31370	15104	97	
5219	0	31372	15106	97	
5220	0	31377	15107	97	
5221	0	31374	15107	97	
5222	0	31378	15106	97	
5223	0	31380	15105	97	
5224	0	31379	15108	97	
5225	0	31375	15106	97	
5226	0	31377	15107	97	
5227	0	31381	15105	97	
5228	0	31379	15109	97	
5229	0	31375	15109	97	
5230	0	31382	15111	97	
5231	0	31378	15112	97	
5232	0	31378	15113	97	
