# OpenSignals Text File Format. Version 1
# {"84:2E:14:0C:D8:EF": {"position": 0, "device": "biosignalsplux", "device name": "84:2E:14:0C:D8:EF", "device connection": "BTH84:2E:14:0C:D8:EF", "sampling rate": 100, "resolution": [16, 16], "firmware version": 779, "comments": "", "keywords": "", "mode": 0, "sync interval": 2, "date": "2026-4-22", "time": "15:59:32.356", "channels": [9, 10, 11], "sensor": ["fSpO2", "fSpO2", "%SpO2"], "label": ["CH9A", "CH9B", "%SpO2"], "column": ["nSeq", "DI", "CH9A", "CH9B", "%SpO2"], "special": [{"SpO2": [80, 40, 5, 4, 4, 4]}, {"SpO2": [80, 40, 5, 4, 4, 4]}, {"SpO2": [80, 40, 5, 4, 4, 4]}, {"SpO2": [80, 40, 5, 4, 4, 4]}, {"SpO2": [80, 40, 5, 4, 4, 4]}, {"SpO2": [80, 40, 5, 4, 4, 4]}, {"SpO2": [80, 40, 5, 4, 4, 4]}, {"SpO2": [80, 40, 5, 4, 4, 4]}, {"SpO2": [80, 40, 5, 4, 4, 4]}, {"SpO2": [80, 40, 5, 4, 4, 4]}], "digital IO": [0, 1], "virtual channels": "{'channels': [11], 'calculationChannels': [[9, 10]]}", "sleeve color": ["yellow", "yellow", "dark_blue"]}}
# EndOfHeader
0	0	57499	27230	0	
1	0	57536	27227	0	
2	0	57546	27234	0	
3	0	57545	27229	0	
4	0	57544	27230	0	
5	0	57547	27223	0	
6	0	57551	27231	0	
7	0	57550	27230	0	
8	0	57551	27232	0	
9	0	57557	27230	0	
10	0	57563	27234	0	
11	0	57552	27230	0	
12	0	57553	27237	0	
13	0	57555	27235	0	
14	0	57565	27242	0	
15	0	57562	27247	0	
16	0	57570	27245	0	
17	0	57576	27245	0	
18	0	57571	27251	0	
19	0	57571	27248	0	
20	0	57574	27250	0	
21	0	57582	27252	0	
22	0	57587	27253	0	
23	0	57585	27258	0	
24	0	57586	27260	0	
25	0	57593	27258	0	
26	0	57590	27264	0	
27	0	57600	27264	0	
28	0	57608	27266	0	
29	0	57606	27263	0	
30	0	57608	27263	0	
31	0	57606	27264	0	
32	0	57618	27266	0	
33	0	57619	27271	0	
34	0	57624	27274	0	
35	0	57624	27279	0	
36	0	57621	27277	0	
37	0	57614	27269	0	
38	0	57609	27267	0	
39	0	57607	27258	0	
40	0	57581	27241	0	
41	0	57563	27228	0	
42	0	57557	27211	0	
43	0	57543	27201	0	
44	0	57529	27198	0	
45	0	57534	27189	0	
46	0	57524	27190	0	
47	0	57517	27186	0	
48	0	57525	27178	0	
49	0	57526	27175	0	
50	0	57517	27174	0	
51	0	57521	27171	0	
52	0	57520	27173	0	
53	0	57523	27173	0	
54	0	57519	27170	0	
55	0	57523	27173	0	
56	0	57522	27171	0	
57	0	57526	27174	0	
58	0	57518	27173	0	
59	0	57519	27172	0	
60	0	57529	27176	0	
61	0	57530	27175	0	
62	0	57530	27175	0	
63	0	57533	27180	0	
64	0	57543	27183	0	
65	0	57540	27180	0	
66	0	57544	27191	0	
67	0	57550	27190	0	
68	0	57547	27188	0	
69	0	57557	27187	0	
70	0	57551	27186	0	
71	0	57561	27193	0	
72	0	57563	27191	0	
73	0	57571	27193	0	
74	0	57561	27192	0	
75	0	57567	27191	0	
76	0	57574	27197	0	
77	0	57574	27198	0	
78	0	57578	27202	0	
79	0	57589	27207	0	
80	0	57586	27213	0	
81	0	57585	27212	0	
82	0	57597	27212	0	
83	0	57596	27212	0	
84	0	57604	27215	0	
85	0	57598	27215	0	
86	0	57603	27223	0	
87	0	57606	27228	0	
88	0	57613	27228	0	
89	0	57617	27230	0	
90	0	57623	27228	0	
91	0	57622	27234	0	
92	0	57634	27237	0	
93	0	57629	27237	0	
94	0	57639	27237	0	
95	0	57642	27241	0	
96	0	57648	27246	0	
97	0	57650	27247	0	
98	0	57647	27246	0	
99	0	57658	27253	0	
100	0	57654	27254	0	
101	0	57658	27257	0	
102	0	57661	27259	0	
103	0	57670	27262	0	
104	0	57664	27268	0	
105	0	57680	27262	0	
106	0	57676	27268	0	
107	0	57679	27270	0	
108	0	57678	27269	0	
109	0	57685	27271	0	
110	0	57692	27275	0	
111	0	57696	27278	0	
112	0	57696	27280	0	
113	0	57698	27279	0	
114	0	57698	27280	0	
115	0	57697	27284	0	
116	0	57709	27286	0	
117	0	57706	27290	0	
118	0	57717	27291	0	
119	0	57713	27294	0	
120	0	57721	27298	0	
121	0	57724	27296	0	
122	0	57722	27302	0	
123	0	57732	27298	0	
124	0	57727	27305	0	
125	0	57731	27313	0	
126	0	57738	27314	0	
127	0	57737	27307	0	
128	0	57728	27306	0	
129	0	57721	27291	0	
130	0	57704	27279	0	
131	0	57693	27266	0	
132	0	57667	27258	0	
133	0	57663	27237	0	
134	0	57644	27225	0	
135	0	57636	27215	0	
136	0	57625	27212	0	
137	0	57619	27205	0	
138	0	57624	27199	0	
139	0	57620	27202	0	
140	0	57618	27199	0	
141	0	57620	27199	0	
142	0	57625	27198	0	
143	0	57624	27198	0	
144	0	57618	27200	0	
145	0	57625	27200	0	
146	0	57622	27197	0	
147	0	57627	27197	0	
148	0	57627	27200	0	
149	0	57627	27198	0	
150	0	57630	27201	0	
151	0	57633	27204	0	
152	0	57638	27209	0	
153	0	57645	27214	0	
154	0	57651	27213	0	
155	0	57644	27209	0	
156	0	57646	27211	0	
157	0	57642	27208	0	
158	0	57643	27212	0	
159	0	57644	27208	0	
160	0	57649	27215	0	
161	0	57653	27213	0	
162	0	57651	27219	0	
163	0	57653	27217	0	
164	0	57656	27220	0	
165	0	57667	27220	0	
166	0	57666	27217	0	
167	0	57666	27219	0	
168	0	57668	27224	0	
169	0	57680	27226	0	
170	0	57681	27232	0	
171	0	57688	27233	0	
172	0	57694	27238	0	
173	0	57693	27244	0	
174	0	57697	27247	0	
175	0	57703	27247	0	
176	0	57701	27248	0	
177	0	57708	27250	0	
178	0	57708	27254	0	
179	0	57710	27250	0	
180	0	57722	27255	0	
181	0	57718	27254	0	
182	0	57718	27255	0	
183	0	57728	27256	0	
184	0	57725	27263	0	
185	0	57731	27262	0	
186	0	57740	27268	0	
187	0	57736	27267	0	
188	0	57746	27271	0	
189	0	57752	27274	0	
190	0	57748	27275	0	
191	0	57756	27279	0	
192	0	57761	27284	0	
193	0	57757	27291	0	
194	0	57767	27291	0	
195	0	57779	27295	0	
196	0	57779	27299	0	
197	0	57783	27300	0	
198	0	57782	27299	0	
199	0	57785	27311	0	
200	0	57789	27309	0	
201	0	57789	27311	0	
202	0	57795	27311	0	
203	0	57801	27311	0	
204	0	57801	27313	0	
205	0	57806	27313	0	
206	0	57807	27315	0	
207	0	57823	27324	0	
208	0	57817	27330	0	
209	0	57821	27334	0	
210	0	57819	27333	0	
211	0	57818	27325	0	
212	0	57816	27320	0	
213	0	57812	27316	0	
214	0	57790	27306	0	
215	0	57780	27291	0	
216	0	57769	27274	0	
217	0	57750	27263	0	
218	0	57743	27251	0	
219	0	57727	27238	0	
220	0	57730	27235	0	
221	0	57725	27234	0	
222	0	57712	27227	0	
223	0	57716	27226	0	
224	0	57718	27222	0	
225	0	57718	27224	0	
226	0	57720	27225	0	
227	0	57713	27220	0	
228	0	57717	27221	0	
229	0	57712	27220	0	
230	0	57714	27212	0	
231	0	57717	27216	0	
232	0	57716	27216	0	
233	0	57721	27212	0	
234	0	57725	27214	0	
235	0	57720	27218	0	
236	0	57732	27227	0	
237	0	57731	27226	0	
238	0	57742	27230	0	
239	0	57744	27226	0	
240	0	57734	27229	0	
241	0	57741	27227	0	
242	0	57742	27235	0	
243	0	57744	27226	0	
244	0	57743	27227	0	
245	0	57749	27235	0	
246	0	57745	27236	0	
247	0	57752	27239	0	
248	0	57750	27235	0	
249	0	57756	27239	0	
250	0	57754	27245	0	
251	0	57760	27245	0	
252	0	57768	27247	0	
253	0	57776	27250	0	
254	0	57768	27252	0	
255	0	57779	27258	0	
256	0	57786	27259	0	
257	0	57781	27269	0	
258	0	57797	27269	0	
259	0	57798	27275	0	
260	0	57798	27275	0	
261	0	57800	27273	0	
262	0	57811	27281	0	
263	0	57814	27278	0	
264	0	57809	27280	0	
265	0	57818	27280	0	
266	0	57821	27286	0	
267	0	57826	27294	0	
268	0	57829	27301	0	
269	0	57828	27298	0	
270	0	57836	27301	0	
271	0	57839	27302	0	
272	0	57848	27301	0	
273	0	57841	27301	0	
274	0	57844	27305	0	
275	0	57851	27306	0	
276	0	57854	27309	0	
277	0	57860	27310	0	
278	0	57855	27319	0	
279	0	57865	27318	0	
280	0	57869	27322	0	
281	0	57870	27322	0	
282	0	57875	27321	0	
283	0	57875	27324	0	
284	0	57872	27327	0	
285	0	57879	27325	97	
286	0	57877	27333	97	
287	0	57889	27333	97	
288	0	57891	27342	97	
289	0	57900	27346	97	
290	0	57901	27352	97	
291	0	57913	27356	97	
292	0	57905	27359	97	
293	0	57908	27357	97	
294	0	57905	27354	97	
295	0	57903	27344	97	
296	0	57900	27342	97	
297	0	57885	27337	97	
298	0	57871	27318	97	
299	0	57849	27305	97	
300	0	57839	27297	97	
301	0	57819	27277	97	
302	0	57811	27264	97	
303	0	57801	27255	97	
304	0	57797	27248	97	
305	0	57786	27250	97	
306	0	57785	27245	97	
307	0	57783	27243	97	
308	0	57786	27238	97	
309	0	57782	27239	97	
310	0	57792	27240	97	
311	0	57793	27240	97	
312	0	57779	27233	97	
313	0	57787	27236	97	
314	0	57781	27233	97	
315	0	57771	27231	97	
316	0	57786	27228	97	
317	0	57784	27228	97	
318	0	57783	27233	97	
319	0	57789	27232	97	
320	0	57794	27240	97	
321	0	57804	27242	97	
322	0	57803	27247	97	
323	0	57812	27247	97	
324	0	57809	27249	97	
325	0	57810	27250	97	
326	0	57807	27246	97	
327	0	57804	27248	97	
328	0	57808	27248	97	
329	0	57808	27248	97	
330	0	57804	27252	97	
331	0	57818	27255	97	
332	0	57811	27251	97	
333	0	57824	27256	97	
334	0	57829	27262	97	
335	0	57830	27263	97	
336	0	57819	27264	97	
337	0	57831	27266	97	
338	0	57828	27263	97	
339	0	57841	27270	97	
340	0	57838	27274	97	
341	0	57847	27284	97	
342	0	57850	27283	97	
343	0	57857	27282	97	
344	0	57856	27286	97	
345	0	57862	27285	97	
346	0	57865	27287	97	
347	0	57860	27288	97	
348	0	57870	27290	97	
349	0	57872	27299	97	
350	0	57873	27295	97	
351	0	57884	27297	97	
352	0	57887	27309	97	
353	0	57890	27304	97	
354	0	57891	27307	97	
355	0	57896	27311	97	
356	0	57901	27313	97	
357	0	57891	27317	97	
358	0	57899	27319	97	
359	0	57907	27316	97	
360	0	57904	27321	97	
361	0	57904	27319	97	
362	0	57917	27320	97	
363	0	57911	27329	97	
364	0	57918	27331	97	
365	0	57923	27340	97	
366	0	57925	27337	97	
367	0	57928	27342	97	
368	0	57926	27347	97	
369	0	57927	27345	97	
370	0	57935	27350	97	
371	0	57933	27352	97	
372	0	57945	27350	97	
373	0	57938	27358	97	
374	0	57943	27357	97	
375	0	57951	27364	97	
376	0	57957	27367	97	
377	0	57955	27367	97	
378	0	57962	27372	97	
379	0	57971	27375	97	
380	0	57970	27374	97	
381	0	57968	27383	97	
382	0	57980	27386	97	
383	0	57985	27384	97	
384	0	57983	27388	97	
385	0	57979	27381	97	
386	0	57967	27377	97	
387	0	57958	27360	97	
388	0	57939	27350	97	
389	0	57924	27331	97	
390	0	57903	27316	97	
391	0	57890	27300	97	
392	0	57869	27293	97	
393	0	57856	27284	97	
394	0	57849	27273	97	
395	0	57850	27273	97	
396	0	57847	27271	97	
397	0	57843	27267	97	
398	0	57843	27267	97	
399	0	57841	27265	97	
400	0	57845	27265	97	
401	0	57839	27270	97	
402	0	57841	27269	97	
403	0	57845	27264	97	
404	0	57840	27262	97	
405	0	57839	27266	97	
406	0	57842	27266	97	
407	0	57852	27263	97	
408	0	57855	27270	97	
409	0	57845	27274	97	
410	0	57853	27271	97	
411	0	57862	27273	97	
412	0	57856	27278	97	
413	0	57861	27280	97	
414	0	57860	27280	97	
415	0	57858	27278	97	
416	0	57856	27281	97	
417	0	57858	27278	97	
418	0	57855	27281	97	
419	0	57853	27279	97	
420	0	57860	27277	97	
421	0	57855	27276	97	
422	0	57863	27285	97	
423	0	57863	27282	97	
424	0	57865	27285	97	
425	0	57866	27287	97	
426	0	57877	27295	97	
427	0	57873	27296	97	
428	0	57874	27300	97	
429	0	57885	27299	97	
430	0	57881	27300	97	
431	0	57882	27309	97	
432	0	57889	27307	97	
433	0	57888	27311	97	
434	0	57900	27314	97	
435	0	57897	27319	97	
436	0	57900	27317	97	
437	0	57904	27325	97	
438	0	57911	27327	97	
439	0	57903	27324	97	
440	0	57918	27332	97	
441	0	57913	27330	97	
442	0	57916	27335	97	
443	0	57917	27340	97	
444	0	57919	27339	97	
445	0	57924	27340	97	
446	0	57932	27345	97	
447	0	57931	27344	97	
448	0	57932	27348	97	
449	0	57932	27354	97	
450	0	57942	27357	97	
451	0	57948	27358	97	
452	0	57940	27361	97	
453	0	57954	27361	97	
454	0	57946	27366	97	
455	0	57950	27364	97	
456	0	57959	27366	97	
457	0	57954	27367	97	
458	0	57964	27375	97	
459	0	57964	27369	97	
460	0	57958	27366	97	
461	0	57949	27357	97	
462	0	57936	27347	97	
463	0	57915	27339	97	
464	0	57911	27327	97	
465	0	57891	27314	97	
466	0	57886	27306	97	
467	0	57874	27294	97	
468	0	57861	27286	97	
469	0	57856	27286	97	
470	0	57859	27284	97	
471	0	57851	27282	97	
472	0	57857	27274	97	
473	0	57853	27275	97	
474	0	57849	27276	97	
475	0	57848	27277	97	
476	0	57850	27281	97	
477	0	57853	27282	97	
478	0	57849	27276	97	
479	0	57852	27282	97	
480	0	57855	27280	97	
481	0	57864	27286	97	
482	0	57855	27284	97	
483	0	57858	27290	97	
484	0	57869	27292	97	
485	0	57861	27289	97	
486	0	57865	27293	97	
487	0	57876	27304	97	
488	0	57872	27302	97	
489	0	57870	27303	97	
490	0	57877	27302	97	
491	0	57871	27303	97	
492	0	57880	27303	97	
493	0	57874	27306	97	
494	0	57880	27309	97	
495	0	57882	27317	97	
496	0	57881	27315	97	
497	0	57886	27319	97	
498	0	57896	27323	97	
499	0	57898	27326	97	
500	0	57897	27330	97	
501	0	57905	27334	97	
502	0	57911	27333	97	
503	0	57916	27337	97	
504	0	57911	27336	97	
505	0	57915	27337	97	
506	0	57915	27348	97	
507	0	57918	27351	97	
508	0	57922	27350	97	
509	0	57932	27358	97	
510	0	57941	27362	97	
511	0	57942	27361	97	
512	0	57940	27370	97	
513	0	57940	27373	97	
514	0	57950	27375	97	
515	0	57952	27377	97	
516	0	57951	27383	97	
517	0	57952	27387	97	
518	0	57968	27386	97	
519	0	57967	27387	97	
520	0	57971	27395	97	
521	0	57966	27396	97	
522	0	57968	27394	97	
523	0	57970	27399	97	
524	0	57967	27398	97	
525	0	57978	27406	97	
526	0	57981	27407	97	
527	0	57988	27413	97	
528	0	57988	27416	97	
529	0	57985	27418	97	
530	0	57992	27421	97	
531	0	57992	27424	97	
532	0	57993	27429	97	
533	0	57993	27426	97	
534	0	57988	27427	97	
535	0	57990	27416	97	
536	0	57976	27413	97	
537	0	57954	27401	97	
538	0	57952	27393	97	
539	0	57926	27377	97	
540	0	57921	27370	97	
541	0	57917	27360	97	
542	0	57901	27353	97	
543	0	57901	27348	97	
544	0	57891	27342	97	
545	0	57894	27340	97	
546	0	57893	27342	97	
547	0	57897	27343	97	
548	0	57896	27348	97	
549	0	57890	27346	97	
550	0	57890	27337	97	
551	0	57887	27338	97	
552	0	57889	27345	97	
553	0	57889	27345	97	
554	0	57890	27343	97	
555	0	57887	27346	97	
556	0	57897	27347	97	
557	0	57890	27354	97	
558	0	57900	27361	97	
559	0	57900	27363	97	
560	0	57901	27364	97	
561	0	57908	27363	97	
562	0	57914	27370	97	
563	0	57907	27370	97	
564	0	57910	27368	97	
565	0	57916	27369	97	
566	0	57909	27373	97	
567	0	57914	27372	97	
568	0	57919	27371	97	
569	0	57919	27376	97	
570	0	57923	27373	97	
571	0	57924	27378	97	
572	0	57923	27382	97	
573	0	57928	27384	97	
574	0	57933	27384	97	
575	0	57923	27386	97	
576	0	57929	27392	97	
577	0	57942	27401	97	
578	0	57939	27400	97	
579	0	57937	27400	97	
580	0	57947	27399	97	
581	0	57950	27405	97	
582	0	57949	27409	97	
583	0	57956	27411	97	
584	0	57964	27421	97	
585	0	57971	27422	96	
586	0	57974	27423	96	
587	0	57976	27423	96	
588	0	57979	27425	96	
589	0	57981	27427	96	
590	0	57978	27429	96	
591	0	57976	27433	96	
592	0	57987	27437	96	
593	0	57992	27437	96	
594	0	57999	27443	96	
595	0	57998	27444	96	
596	0	58001	27451	96	
597	0	57998	27453	96	
598	0	58012	27459	96	
599	0	58009	27458	96	
600	0	58022	27464	96	
601	0	58018	27464	96	
602	0	58020	27468	96	
603	0	58020	27471	96	
604	0	58036	27473	96	
605	0	58030	27482	96	
606	0	58037	27490	96	
607	0	58040	27486	96	
608	0	58041	27493	96	
609	0	58052	27497	96	
610	0	58047	27499	96	
611	0	58054	27500	96	
612	0	58054	27501	96	
613	0	58051	27497	96	
614	0	58035	27492	96	
615	0	58024	27483	96	
616	0	58018	27469	96	
617	0	58008	27464	96	
618	0	57990	27452	96	
619	0	57988	27439	96	
620	0	57967	27438	96	
621	0	57969	27432	96	
622	0	57959	27426	96	
623	0	57952	27424	96	
624	0	57952	27423	96	
625	0	57955	27417	96	
626	0	57949	27415	96	
627	0	57944	27415	96	
628	0	57956	27416	96	
629	0	57948	27413	96	
630	0	57952	27413	96	
631	0	57955	27416	96	
632	0	57945	27413	96	
633	0	57948	27416	96	
634	0	57953	27415	96	
635	0	57946	27421	96	
636	0	57953	27423	96	
637	0	57956	27423	96	
638	0	57959	27423	96	
639	0	57967	27430	96	
640	0	57962	27435	96	
641	0	57971	27433	96	
642	0	57963	27436	96	
643	0	57964	27434	96	
644	0	57966	27430	96	
645	0	57975	27436	96	
646	0	57978	27443	96	
647	0	57976	27441	96	
648	0	57977	27448	96	
649	0	57985	27447	96	
650	0	57988	27446	96	
651	0	57992	27449	96	
652	0	57987	27453	96	
653	0	57992	27457	96	
654	0	58005	27459	96	
655	0	57998	27468	96	
656	0	58005	27470	96	
657	0	58014	27466	96	
658	0	58012	27475	96	
659	0	58016	27476	96	
660	0	58020	27477	96	
661	0	58027	27481	96	
662	0	58030	27489	96	
663	0	58035	27489	96	
664	0	58028	27495	96	
665	0	58046	27497	96	
666	0	58044	27503	96	
667	0	58038	27507	96	
668	0	58042	27503	96	
669	0	58056	27509	96	
670	0	58053	27509	96	
671	0	58056	27516	96	
672	0	58068	27523	96	
673	0	58068	27528	96	
674	0	58077	27535	96	
675	0	58070	27535	96	
676	0	58083	27539	96	
677	0	58079	27544	96	
678	0	58078	27544	96	
679	0	58091	27539	96	
680	0	58096	27551	96	
681	0	58091	27556	96	
682	0	58105	27557	96	
683	0	58101	27561	96	
684	0	58110	27568	96	
685	0	58113	27576	96	
686	0	58108	27579	96	
687	0	58118	27578	96	
688	0	58119	27577	96	
689	0	58124	27582	96	
690	0	58120	27582	96	
691	0	58135	27591	96	
692	0	58129	27596	96	
693	0	58142	27596	96	
694	0	58142	27604	96	
695	0	58146	27608	96	
696	0	58147	27613	96	
697	0	58147	27605	96	
698	0	58150	27608	96	
699	0	58149	27611	96	
700	0	58154	27618	96	
701	0	58154	27624	96	
702	0	58155	27621	96	
703	0	58161	27619	96	
704	0	58140	27616	96	
705	0	58143	27611	96	
706	0	58125	27603	96	
707	0	58121	27593	96	
708	0	58114	27584	96	
709	0	58107	27585	96	
710	0	58097	27575	96	
711	0	58092	27574	96	
712	0	58090	27571	96	
713	0	58091	27568	96	
714	0	58085	27569	96	
715	0	58080	27572	96	
716	0	58087	27572	96	
717	0	58086	27568	96	
718	0	58077	27566	96	
719	0	58085	27565	96	
720	0	58080	27568	96	
721	0	58077	27567	96	
722	0	58079	27567	96	
723	0	58090	27568	96	
724	0	58085	27575	96	
725	0	58092	27578	96	
726	0	58083	27577	96	
727	0	58088	27576	96	
728	0	58092	27574	96	
729	0	58090	27581	96	
730	0	58096	27585	96	
731	0	58091	27581	96	
732	0	58087	27586	96	
733	0	58083	27585	96	
734	0	58092	27582	96	
735	0	58092	27586	96	
736	0	58092	27584	96	
737	0	58086	27588	96	
738	0	58088	27587	96	
739	0	58089	27591	96	
740	0	58096	27594	96	
741	0	58088	27596	96	
742	0	58093	27596	96	
743	0	58100	27602	96	
744	0	58102	27602	96	
745	0	58097	27604	96	
746	0	58103	27605	96	
747	0	58113	27608	96	
748	0	58109	27602	96	
749	0	58115	27608	96	
750	0	58116	27611	96	
751	0	58120	27614	96	
752	0	58121	27616	96	
753	0	58116	27618	96	
754	0	58119	27626	96	
755	0	58118	27628	96	
756	0	58123	27629	96	
757	0	58128	27629	96	
758	0	58125	27632	96	
759	0	58125	27636	96	
760	0	58133	27635	96	
761	0	58132	27638	96	
762	0	58130	27641	96	
763	0	58130	27641	96	
764	0	58140	27647	96	
765	0	58146	27651	96	
766	0	58149	27651	96	
767	0	58138	27652	96	
768	0	58144	27653	96	
769	0	58141	27655	96	
770	0	58152	27654	96	
771	0	58149	27657	96	
772	0	58154	27662	96	
773	0	58161	27664	96	
774	0	58164	27668	96	
775	0	58159	27674	96	
776	0	58171	27671	96	
777	0	58170	27676	96	
778	0	58165	27678	96	
779	0	58172	27680	96	
780	0	58177	27681	96	
781	0	58175	27682	96	
782	0	58169	27688	96	
783	0	58173	27687	96	
784	0	58177	27690	96	
785	0	58179	27692	96	
786	0	58186	27701	96	
787	0	58185	27703	96	
788	0	58192	27705	96	
789	0	58191	27708	96	
790	0	58194	27704	96	
791	0	58197	27709	96	
792	0	58193	27706	96	
793	0	58185	27706	96	
794	0	58185	27699	96	
795	0	58173	27695	96	
796	0	58176	27689	96	
797	0	58166	27689	96	
798	0	58165	27683	96	
799	0	58155	27682	96	
800	0	58153	27675	96	
801	0	58150	27673	96	
802	0	58145	27666	96	
803	0	58143	27668	96	
804	0	58136	27668	96	
805	0	58138	27670	96	
806	0	58135	27669	96	
807	0	58131	27661	96	
808	0	58129	27664	96	
809	0	58129	27664	96	
810	0	58126	27664	96	
811	0	58123	27664	96	
812	0	58125	27666	96	
813	0	58129	27666	96	
814	0	58127	27671	96	
815	0	58129	27664	96	
816	0	58126	27661	96	
817	0	58125	27665	96	
818	0	58131	27667	96	
819	0	58127	27664	96	
820	0	58128	27669	96	
821	0	58130	27669	96	
822	0	58124	27670	96	
823	0	58129	27672	96	
824	0	58124	27670	96	
825	0	58121	27673	96	
826	0	58122	27669	96	
827	0	58126	27668	96	
828	0	58128	27672	96	
829	0	58124	27671	96	
830	0	58125	27673	96	
831	0	58127	27675	96	
832	0	58133	27677	96	
833	0	58126	27677	96	
834	0	58135	27679	96	
835	0	58128	27679	96	
836	0	58134	27677	96	
837	0	58135	27679	96	
838	0	58135	27676	96	
839	0	58133	27679	96	
840	0	58136	27686	96	
841	0	58137	27690	96	
842	0	58135	27695	96	
843	0	58145	27695	96	
844	0	58145	27698	96	
845	0	58134	27696	96	
846	0	58135	27691	96	
847	0	58144	27693	96	
848	0	58143	27694	96	
849	0	58144	27701	96	
850	0	58146	27704	96	
851	0	58149	27702	96	
852	0	58150	27707	96	
853	0	58148	27712	96	
854	0	58158	27710	96	
855	0	58152	27709	96	
856	0	58158	27711	96	
857	0	58152	27715	96	
858	0	58158	27715	96	
859	0	58150	27719	96	
860	0	58160	27722	96	
861	0	58159	27724	96	
862	0	58166	27729	96	
863	0	58168	27727	96	
864	0	58166	27730	96	
865	0	58158	27736	96	
866	0	58172	27736	96	
867	0	58170	27737	96	
868	0	58167	27744	96	
869	0	58174	27740	96	
870	0	58173	27735	96	
871	0	58169	27741	96	
872	0	58172	27742	96	
873	0	58173	27742	96	
874	0	58175	27749	96	
875	0	58177	27750	96	
876	0	58176	27749	96	
877	0	58186	27754	96	
878	0	58173	27752	96	
879	0	58180	27749	96	
880	0	58186	27753	96	
881	0	58183	27758	96	
882	0	58189	27758	96	
883	0	58186	27764	96	
884	0	58185	27766	96	
885	0	58183	27760	96	
886	0	58172	27762	96	
887	0	58171	27754	96	
888	0	58167	27750	96	
889	0	58155	27739	96	
890	0	58153	27736	96	
891	0	58148	27732	96	
892	0	58141	27731	96	
893	0	58138	27722	96	
894	0	58130	27721	96	
895	0	58120	27718	96	
896	0	58119	27716	96	
897	0	58120	27712	96	
898	0	58109	27710	96	
899	0	58108	27707	96	
900	0	58105	27708	96	
901	0	58108	27703	96	
902	0	58098	27702	96	
903	0	58096	27706	96	
904	0	58100	27701	96	
905	0	58092	27698	96	
906	0	58094	27702	96	
907	0	58097	27698	96	
908	0	58096	27696	96	
909	0	58095	27699	96	
910	0	58086	27696	96	
911	0	58089	27700	96	
912	0	58088	27699	96	
913	0	58087	27696	96	
914	0	58090	27691	96	
915	0	58076	27699	96	
916	0	58075	27693	96	
917	0	58081	27688	96	
918	0	58072	27691	96	
919	0	58075	27691	96	
920	0	58069	27695	96	
921	0	58076	27698	96	
922	0	58076	27691	96	
923	0	58071	27693	96	
924	0	58074	27697	96	
925	0	58066	27693	96	
926	0	58063	27690	96	
927	0	58068	27698	96	
928	0	58071	27695	96	
929	0	58064	27697	96	
930	0	58070	27698	96	
931	0	58069	27694	96	
932	0	58070	27695	96	
933	0	58065	27698	96	
934	0	58065	27702	96	
935	0	58068	27695	96	
936	0	58073	27699	96	
937	0	58069	27704	96	
938	0	58071	27706	96	
939	0	58078	27706	96	
940	0	58075	27704	96	
941	0	58074	27709	96	
942	0	58074	27708	96	
943	0	58068	27709	96	
944	0	58063	27711	96	
945	0	58071	27710	96	
946	0	58060	27712	96	
947	0	58066	27710	96	
948	0	58071	27715	96	
949	0	58069	27716	96	
950	0	58074	27715	96	
951	0	58068	27720	96	
952	0	58078	27716	96	
953	0	58077	27713	96	
954	0	58072	27718	96	
955	0	58077	27724	96	
956	0	58074	27720	96	
957	0	58077	27725	96	
958	0	58079	27724	96	
959	0	58073	27725	96	
960	0	58075	27728	96	
961	0	58078	27733	96	
962	0	58079	27737	96	
963	0	58079	27734	96	
964	0	58088	27737	96	
965	0	58078	27736	96	
966	0	58076	27735	96	
967	0	58082	27737	96	
968	0	58078	27739	96	
969	0	58081	27738	96	
970	0	58089	27745	96	
971	0	58089	27744	96	
972	0	58091	27746	96	
973	0	58080	27744	96	
974	0	58087	27749	96	
975	0	58085	27749	96	
976	0	58092	27749	96	
977	0	58087	27752	96	
978	0	58088	27746	96	
979	0	58077	27745	96	
980	0	58073	27747	96	
981	0	58068	27741	96	
982	0	58063	27744	96	
983	0	58064	27742	96	
984	0	58053	27734	96	
985	0	58046	27734	96	
986	0	58043	27724	96	
987	0	58040	27724	96	
988	0	58037	27721	96	
989	0	58033	27722	96	
990	0	58033	27717	96	
991	0	58029	27716	96	
992	0	58027	27717	96	
993	0	58015	27717	96	
994	0	58020	27714	96	
995	0	58023	27720	96	
996	0	58015	27712	96	
997	0	58021	27712	96	
998	0	58016	27712	96	
999	0	58010	27710	96	
1000	0	58016	27714	96	
1001	0	58010	27712	96	
1002	0	58005	27710	96	
1003	0	58009	27705	96	
1004	0	58004	27704	96	
1005	0	58004	27707	96	
1006	0	58001	27704	96	
1007	0	57999	27708	96	
1008	0	57993	27706	96	
1009	0	57994	27702	96	
1010	0	57997	27702	96	
1011	0	57991	27708	96	
1012	0	57998	27701	96	
1013	0	57996	27702	96	
1014	0	57993	27708	96	
1015	0	57989	27702	96	
1016	0	57987	27698	96	
1017	0	57983	27700	96	
1018	0	57988	27706	96	
1019	0	57986	27703	96	
1020	0	57990	27705	96	
1021	0	57987	27704	96	
1022	0	57977	27704	96	
1023	0	57982	27704	96	
1024	0	57975	27706	96	
1025	0	57975	27706	96	
1026	0	57963	27704	96	
1027	0	57966	27704	96	
1028	0	57959	27706	96	
1029	0	57959	27705	96	
1030	0	57958	27706	96	
1031	0	57958	27703	96	
1032	0	57953	27704	96	
1033	0	57952	27709	96	
1034	0	57955	27710	96	
1035	0	57956	27713	96	
1036	0	57946	27712	96	
1037	0	57946	27710	96	
1038	0	57948	27713	96	
1039	0	57942	27709	96	
1040	0	57949	27711	96	
1041	0	57953	27718	96	
1042	0	57949	27712	96	
1043	0	57943	27711	96	
1044	0	57946	27715	96	
1045	0	57946	27712	96	
1046	0	57939	27712	96	
1047	0	57945	27715	96	
1048	0	57944	27710	96	
1049	0	57945	27713	96	
1050	0	57935	27717	96	
1051	0	57935	27713	96	
1052	0	57943	27721	96	
1053	0	57939	27721	96	
1054	0	57936	27720	96	
1055	0	57945	27715	96	
1056	0	57932	27717	96	
1057	0	57932	27723	96	
1058	0	57939	27721	96	
1059	0	57934	27721	96	
1060	0	57942	27719	96	
1061	0	57935	27719	96	
1062	0	57934	27722	96	
1063	0	57928	27719	96	
1064	0	57930	27718	96	
1065	0	57933	27718	96	
1066	0	57926	27722	96	
1067	0	57920	27717	96	
1068	0	57907	27710	96	
1069	0	57906	27707	96	
1070	0	57901	27705	96	
1071	0	57905	27705	96	
1072	0	57893	27700	96	
1073	0	57890	27696	96	
1074	0	57892	27691	96	
1075	0	57889	27691	96	
1076	0	57888	27701	96	
1077	0	57885	27698	96	
1078	0	57891	27700	96	
1079	0	57891	27697	96	
1080	0	57882	27692	96	
1081	0	57879	27693	96	
1082	0	57885	27695	96	
1083	0	57875	27684	96	
1084	0	57876	27690	96	
1085	0	57880	27691	96	
1086	0	57871	27691	96	
1087	0	57872	27693	96	
1088	0	57880	27692	96	
1089	0	57882	27690	96	
1090	0	57881	27690	96	
1091	0	57878	27681	96	
1092	0	57865	27685	96	
1093	0	57874	27683	96	
1094	0	57877	27685	96	
1095	0	57880	27691	96	
1096	0	57869	27691	96	
1097	0	57873	27693	96	
1098	0	57875	27688	96	
1099	0	57876	27688	96	
1100	0	57860	27686	96	
1101	0	57873	27685	96	
1102	0	57873	27689	96	
1103	0	57874	27690	96	
1104	0	57865	27689	96	
1105	0	57874	27698	96	
1106	0	57874	27697	96	
1107	0	57875	27698	96	
1108	0	57873	27696	96	
1109	0	57874	27695	96	
1110	0	57872	27700	96	
1111	0	57869	27700	96	
1112	0	57871	27701	96	
1113	0	57871	27700	96	
1114	0	57873	27702	96	
1115	0	57878	27699	96	
1116	0	57877	27701	96	
1117	0	57879	27705	96	
1118	0	57880	27702	96	
1119	0	57872	27706	96	
1120	0	57872	27704	96	
1121	0	57877	27704	96	
1122	0	57874	27708	96	
1123	0	57883	27708	96	
1124	0	57875	27709	96	
1125	0	57889	27718	96	
1126	0	57890	27716	96	
1127	0	57886	27717	96	
1128	0	57877	27712	96	
1129	0	57882	27719	96	
1130	0	57888	27715	96	
1131	0	57883	27714	96	
1132	0	57883	27720	96	
1133	0	57881	27718	96	
1134	0	57895	27722	96	
1135	0	57893	27730	96	
1136	0	57895	27729	96	
1137	0	57884	27726	96	
1138	0	57889	27729	96	
1139	0	57892	27723	96	
1140	0	57884	27723	96	
1141	0	57891	27724	96	
1142	0	57893	27722	96	
1143	0	57892	27725	96	
1144	0	57889	27728	96	
1145	0	57890	27726	96	
1146	0	57889	27731	96	
1147	0	57893	27730	96	
1148	0	57894	27731	96	
1149	0	57893	27735	96	
1150	0	57892	27727	96	
1151	0	57888	27731	96	
1152	0	57885	27729	96	
1153	0	57883	27729	96	
1154	0	57877	27723	96	
1155	0	57877	27725	96	
1156	0	57872	27720	96	
1157	0	57863	27718	96	
1158	0	57861	27711	96	
1159	0	57865	27714	96	
1160	0	57859	27712	96	
1161	0	57858	27712	96	
1162	0	57860	27714	96	
1163	0	57859	27714	96	
1164	0	57853	27714	96	
1165	0	57857	27708	96	
1166	0	57856	27710	96	
1167	0	57852	27707	96	
1168	0	57855	27707	96	
1169	0	57857	27709	96	
1170	0	57852	27706	96	
1171	0	57850	27704	96	
1172	0	57846	27703	96	
1173	0	57850	27706	96	
1174	0	57855	27706	96	
1175	0	57851	27707	96	
1176	0	57846	27706	96	
1177	0	57854	27710	96	
1178	0	57851	27707	96	
1179	0	57839	27705	96	
1180	0	57850	27710	96	
1181	0	57842	27712	96	
1182	0	57849	27709	96	
1183	0	57840	27708	96	
1184	0	57847	27712	96	
1185	0	57851	27708	94	
1186	0	57846	27709	94	
1187	0	57845	27705	94	
1188	0	57847	27710	94	
1189	0	57842	27708	94	
1190	0	57855	27722	94	
1191	0	57850	27717	94	
1192	0	57845	27716	94	
1193	0	57849	27717	94	
1194	0	57850	27720	94	
1195	0	57852	27723	94	
1196	0	57852	27720	94	
1197	0	57857	27716	94	
1198	0	57855	27721	94	
1199	0	57856	27728	94	
1200	0	57862	27724	94	
1201	0	57858	27725	94	
1202	0	57861	27720	94	
1203	0	57864	27734	94	
1204	0	57870	27738	94	
1205	0	57876	27735	94	
1206	0	57872	27736	94	
1207	0	57879	27735	94	
1208	0	57875	27737	94	
1209	0	57876	27738	94	
1210	0	57873	27741	94	
1211	0	57880	27738	94	
1212	0	57880	27742	94	
1213	0	57884	27748	94	
1214	0	57879	27749	94	
1215	0	57881	27749	94	
1216	0	57882	27753	94	
1217	0	57883	27756	94	
1218	0	57885	27757	94	
1219	0	57883	27757	94	
1220	0	57894	27760	94	
1221	0	57893	27759	94	
1222	0	57890	27763	94	
1223	0	57894	27763	94	
1224	0	57894	27761	94	
1225	0	57899	27769	94	
1226	0	57896	27767	94	
1227	0	57897	27770	94	
1228	0	57907	27769	94	
1229	0	57908	27772	94	
1230	0	57909	27775	94	
1231	0	57903	27775	94	
1232	0	57903	27770	94	
1233	0	57905	27771	94	
1234	0	57910	27773	94	
1235	0	57915	27775	94	
1236	0	57915	27778	94	
1237	0	57915	27777	94	
1238	0	57907	27776	94	
1239	0	57920	27780	94	
1240	0	57920	27784	94	
1241	0	57919	27793	94	
1242	0	57928	27791	94	
1243	0	57926	27788	94	
1244	0	57926	27793	94	
1245	0	57925	27796	94	
1246	0	57920	27794	94	
1247	0	57921	27789	94	
1248	0	57917	27789	94	
1249	0	57918	27793	94	
1250	0	57917	27790	94	
1251	0	57911	27787	94	
1252	0	57912	27790	94	
1253	0	57910	27791	94	
1254	0	57904	27784	94	
1255	0	57908	27783	94	
1256	0	57904	27786	94	
1257	0	57908	27785	94	
1258	0	57912	27787	94	
1259	0	57911	27789	94	
1260	0	57908	27794	94	
1261	0	57911	27790	94	
1262	0	57906	27788	94	
1263	0	57909	27787	94	
1264	0	57907	27787	94	
1265	0	57908	27790	94	
1266	0	57913	27795	94	
1267	0	57908	27795	94	
1268	0	57911	27798	94	
1269	0	57911	27790	94	
1270	0	57914	27792	94	
1271	0	57918	27793	94	
1272	0	57919	27794	94	
1273	0	57912	27797	94	
1274	0	57920	27799	94	
1275	0	57913	27799	94	
1276	0	57923	27798	94	
1277	0	57927	27800	94	
1278	0	57928	27803	94	
1279	0	57918	27800	94	
1280	0	57922	27804	94	
1281	0	57921	27807	94	
1282	0	57932	27805	94	
1283	0	57935	27805	94	
1284	0	57926	27810	94	
1285	0	57934	27808	94	
1286	0	57935	27812	94	
1287	0	57932	27818	94	
1288	0	57941	27814	94	
1289	0	57940	27815	94	
1290	0	57944	27817	94	
1291	0	57933	27816	94	
1292	0	57941	27821	94	
1293	0	57947	27815	94	
1294	0	57941	27823	94	
1295	0	57948	27823	94	
1296	0	57949	27831	94	
1297	0	57950	27826	94	
1298	0	57957	27830	94	
1299	0	57953	27832	94	
1300	0	57958	27833	94	
1301	0	57962	27836	94	
1302	0	57955	27838	94	
1303	0	57959	27837	94	
1304	0	57966	27839	94	
1305	0	57964	27846	94	
1306	0	57971	27840	94	
1307	0	57978	27848	94	
1308	0	57972	27853	94	
1309	0	57975	27850	94	
1310	0	57970	27847	94	
1311	0	57977	27853	94	
1312	0	57984	27851	94	
1313	0	57982	27855	94	
1314	0	57983	27859	94	
1315	0	57990	27863	94	
1316	0	57989	27866	94	
1317	0	57993	27861	94	
1318	0	57989	27867	94	
1319	0	57994	27867	94	
1320	0	57999	27869	94	
1321	0	57993	27869	94	
1322	0	57997	27866	94	
1323	0	58007	27870	94	
1324	0	58005	27874	94	
1325	0	58000	27873	94	
1326	0	58002	27876	94	
1327	0	57997	27879	94	
1328	0	58008	27879	94	
1329	0	58001	27882	94	
1330	0	58006	27880	94	
1331	0	58014	27884	94	
1332	0	58014	27890	94	
1333	0	58017	27891	94	
1334	0	58016	27889	94	
1335	0	58020	27892	94	
1336	0	58019	27891	94	
1337	0	58020	27893	94	
1338	0	58030	27895	94	
1339	0	58026	27895	94	
1340	0	58028	27898	94	
1341	0	58026	27900	94	
1342	0	58034	27902	94	
1343	0	58030	27904	94	
1344	0	58029	27906	94	
1345	0	58030	27906	94	
1346	0	58038	27900	94	
1347	0	58023	27900	94	
1348	0	58027	27897	94	
1349	0	58026	27899	94	
1350	0	58019	27897	94	
1351	0	58029	27892	94	
1352	0	58021	27895	94	
1353	0	58022	27896	94	
1354	0	58025	27897	94	
1355	0	58023	27892	94	
1356	0	58021	27891	94	
1357	0	58025	27894	94	
1358	0	58019	27897	94	
1359	0	58014	27895	94	
1360	0	58018	27896	94	
1361	0	58021	27897	94	
1362	0	58024	27893	94	
1363	0	58026	27895	94	
1364	0	58025	27896	94	
1365	0	58012	27892	94	
1366	0	58013	27899	94	
1367	0	58016	27898	94	
1368	0	58015	27898	94	
1369	0	58020	27902	94	
1370	0	58014	27893	94	
1371	0	58018	27895	94	
1372	0	58021	27901	94	
1373	0	58013	27893	94	
1374	0	58019	27901	94	
1375	0	58020	27892	94	
1376	0	58013	27892	94	
1377	0	58019	27893	94	
1378	0	58006	27896	94	
1379	0	58022	27901	94	
1380	0	58013	27900	94	
1381	0	58025	27901	94	
1382	0	58016	27897	94	
1383	0	58023	27896	94	
1384	0	58014	27897	94	
1385	0	58016	27903	94	
1386	0	58021	27895	94	
1387	0	58024	27893	94	
1388	0	58025	27899	94	
1389	0	58018	27899	94	
1390	0	58026	27903	94	
1391	0	58025	27906	94	
1392	0	58028	27903	94	
1393	0	58030	27901	94	
1394	0	58021	27904	94	
1395	0	58020	27897	94	
1396	0	58023	27903	94	
1397	0	58027	27908	94	
1398	0	58025	27906	94	
1399	0	58033	27913	94	
1400	0	58029	27910	94	
1401	0	58023	27909	94	
1402	0	58034	27902	94	
1403	0	58027	27910	94	
1404	0	58037	27908	94	
1405	0	58029	27912	94	
1406	0	58028	27913	94	
1407	0	58035	27919	94	
1408	0	58035	27917	94	
1409	0	58039	27917	94	
1410	0	58033	27915	94	
1411	0	58042	27912	94	
1412	0	58045	27916	94	
1413	0	58037	27919	94	
1414	0	58039	27916	94	
1415	0	58043	27918	94	
1416	0	58041	27923	94	
1417	0	58050	27925	94	
1418	0	58049	27923	94	
1419	0	58046	27923	94	
1420	0	58048	27925	94	
1421	0	58054	27926	94	
1422	0	58047	27922	94	
1423	0	58047	27922	94	
1424	0	58055	27928	94	
1425	0	58055	27930	94	
1426	0	58055	27934	94	
1427	0	58061	27934	94	
1428	0	58057	27930	94	
1429	0	58060	27930	94	
1430	0	58062	27932	94	
1431	0	58058	27929	94	
1432	0	58062	27934	94	
1433	0	58061	27927	94	
1434	0	58055	27928	94	
1435	0	58062	27933	94	
1436	0	58057	27936	94	
1437	0	58058	27933	94	
1438	0	58055	27936	94	
1439	0	58047	27928	94	
1440	0	58044	27923	94	
1441	0	58037	27924	94	
1442	0	58038	27923	94	
1443	0	58033	27912	94	
1444	0	58033	27915	94	
1445	0	58037	27918	94	
1446	0	58040	27925	94	
1447	0	58037	27919	94	
1448	0	58034	27921	94	
1449	0	58029	27917	94	
1450	0	58033	27922	94	
1451	0	58036	27917	94	
1452	0	58037	27913	94	
1453	0	58028	27912	94	
1454	0	58039	27911	94	
1455	0	58026	27913	94	
1456	0	58032	27917	94	
1457	0	58029	27913	94	
1458	0	58031	27920	94	
1459	0	58037	27916	94	
1460	0	58035	27921	94	
1461	0	58035	27918	94	
1462	0	58034	27915	94	
1463	0	58038	27919	94	
1464	0	58027	27919	94	
1465	0	58033	27918	94	
1466	0	58028	27921	94	
1467	0	58030	27923	94	
1468	0	58031	27916	94	
1469	0	58028	27918	94	
1470	0	58038	27922	94	
1471	0	58033	27922	94	
1472	0	58038	27925	94	
1473	0	58026	27923	94	
1474	0	58028	27917	94	
1475	0	58027	27916	94	
1476	0	58036	27922	94	
1477	0	58046	27924	94	
1478	0	58043	27923	94	
1479	0	58039	27921	94	
1480	0	58043	27922	94	
1481	0	58046	27931	94	
1482	0	58046	27928	94	
1483	0	58048	27930	94	
1484	0	58046	27930	94	
1485	0	58049	27934	93	
1486	0	58042	27929	93	
1487	0	58051	27931	93	
1488	0	58044	27933	93	
1489	0	58052	27931	93	
1490	0	58041	27932	93	
1491	0	58051	27931	93	
1492	0	58048	27932	93	
1493	0	58051	27932	93	
1494	0	58060	27937	93	
1495	0	58053	27942	93	
1496	0	58066	27938	93	
1497	0	58065	27940	93	
1498	0	58058	27940	93	
1499	0	58056	27943	93	
1500	0	58058	27939	93	
1501	0	58065	27941	93	
1502	0	58067	27947	93	
1503	0	58070	27951	93	
1504	0	58066	27954	93	
1505	0	58071	27950	93	
1506	0	58068	27952	93	
1507	0	58072	27956	93	
1508	0	58076	27957	93	
1509	0	58078	27956	93	
1510	0	58070	27953	93	
1511	0	58071	27953	93	
1512	0	58069	27957	93	
1513	0	58081	27961	93	
1514	0	58074	27957	93	
1515	0	58076	27965	93	
1516	0	58078	27968	93	
1517	0	58081	27965	93	
1518	0	58078	27966	93	
1519	0	58083	27967	93	
1520	0	58078	27964	93	
1521	0	58077	27965	93	
1522	0	58073	27965	93	
1523	0	58074	27963	93	
1524	0	58073	27955	93	
1525	0	58072	27957	93	
1526	0	58064	27952	93	
1527	0	58068	27946	93	
1528	0	58052	27944	93	
1529	0	58052	27946	93	
1530	0	58048	27944	93	
1531	0	58058	27942	93	
1532	0	58057	27944	93	
1533	0	58052	27939	93	
1534	0	58050	27947	93	
1535	0	58053	27938	93	
1536	0	58043	27938	93	
1537	0	58055	27939	93	
1538	0	58050	27938	93	
1539	0	58042	27936	93	
1540	0	58047	27934	93	
1541	0	58036	27934	93	
1542	0	58037	27935	93	
1543	0	58040	27933	93	
1544	0	58045	27932	93	
1545	0	58034	27935	93	
1546	0	58048	27935	93	
1547	0	58036	27935	93	
1548	0	58038	27932	93	
1549	0	58035	27924	93	
1550	0	58044	27934	93	
1551	0	58040	27932	93	
1552	0	58032	27928	93	
1553	0	58041	27926	93	
1554	0	58030	27928	93	
1555	0	58039	27928	93	
1556	0	58043	27933	93	
1557	0	58045	27936	93	
1558	0	58034	27932	93	
1559	0	58042	27934	93	
1560	0	58032	27928	93	
1561	0	58037	27935	93	
1562	0	58046	27932	93	
1563	0	58042	27938	93	
1564	0	58040	27933	93	
1565	0	58039	27935	93	
1566	0	58043	27940	93	
1567	0	58051	27937	93	
1568	0	58041	27938	93	
1569	0	58042	27941	93	
1570	0	58046	27939	93	
1571	0	58039	27936	93	
1572	0	58043	27939	93	
1573	0	58050	27941	93	
1574	0	58050	27945	93	
1575	0	58048	27946	93	
1576	0	58056	27951	93	
1577	0	58051	27944	93	
1578	0	58056	27945	93	
1579	0	58046	27949	93	
1580	0	58050	27949	93	
1581	0	58056	27948	93	
1582	0	58059	27945	93	
1583	0	58059	27948	93	
1584	0	58052	27951	93	
1585	0	58063	27949	93	
1586	0	58057	27948	93	
1587	0	58056	27950	93	
1588	0	58064	27953	93	
1589	0	58066	27951	93	
1590	0	58059	27956	93	
1591	0	58070	27955	93	
1592	0	58057	27952	93	
1593	0	58060	27951	93	
1594	0	58057	27955	93	
1595	0	58062	27955	93	
1596	0	58064	27959	93	
1597	0	58069	27966	93	
1598	0	58071	27961	93	
1599	0	58075	27967	93	
1600	0	58069	27968	93	
1601	0	58074	27968	93	
1602	0	58065	27964	93	
1603	0	58071	27960	93	
1604	0	58075	27961	93	
1605	0	58070	27963	93	
1606	0	58084	27970	93	
1607	0	58074	27966	93	
1608	0	58077	27972	93	
1609	0	58076	27975	93	
1610	0	58076	27976	93	
1611	0	58083	27978	93	
1612	0	58085	27976	93	
1613	0	58080	27975	93	
1614	0	58082	27973	93	
1615	0	58071	27972	93	
1616	0	58073	27966	93	
1617	0	58069	27966	93	
1618	0	58067	27965	93	
1619	0	58057	27964	93	
1620	0	58056	27961	93	
1621	0	58054	27956	93	
1622	0	58046	27954	93	
1623	0	58044	27951	93	
1624	0	58051	27948	93	
1625	0	58042	27951	93	
1626	0	58045	27949	93	
1627	0	58040	27951	93	
1628	0	58047	27948	93	
1629	0	58041	27945	93	
1630	0	58035	27940	93	
1631	0	58031	27941	93	
1632	0	58037	27941	93	
1633	0	58040	27942	93	
1634	0	58033	27944	93	
1635	0	58027	27936	93	
1636	0	58030	27931	93	
1637	0	58033	27940	93	
1638	0	58029	27937	93	
1639	0	58029	27945	93	
1640	0	58026	27947	93	
1641	0	58031	27941	93	
1642	0	58029	27936	93	
1643	0	58033	27934	93	
1644	0	58026	27935	93	
1645	0	58026	27937	93	
1646	0	58026	27945	93	
1647	0	58028	27940	93	
1648	0	58028	27941	93	
1649	0	58028	27936	93	
1650	0	58029	27939	93	
1651	0	58027	27937	93	
1652	0	58024	27935	93	
1653	0	58020	27937	93	
1654	0	58022	27938	93	
1655	0	58030	27938	93	
1656	0	58027	27939	93	
1657	0	58027	27943	93	
1658	0	58034	27943	93	
1659	0	58036	27941	93	
1660	0	58036	27945	93	
1661	0	58033	27943	93	
1662	0	58031	27942	93	
1663	0	58028	27939	93	
1664	0	58026	27939	93	
1665	0	58031	27939	93	
1666	0	58038	27943	93	
1667	0	58035	27949	93	
1668	0	58040	27949	93	
1669	0	58038	27952	93	
1670	0	58033	27953	93	
1671	0	58036	27946	93	
1672	0	58036	27948	93	
1673	0	58039	27949	93	
1674	0	58039	27949	93	
1675	0	58045	27953	93	
1676	0	58047	27956	93	
1677	0	58040	27952	93	
1678	0	58044	27950	93	
1679	0	58041	27952	93	
1680	0	58040	27954	93	
1681	0	58045	27951	93	
1682	0	58041	27955	93	
1683	0	58044	27962	93	
1684	0	58049	27963	93	
1685	0	58057	27965	93	
1686	0	58049	27963	93	
1687	0	58052	27963	93	
1688	0	58045	27960	93	
1689	0	58049	27966	93	
1690	0	58053	27966	93	
1691	0	58056	27968	93	
1692	0	58055	27961	93	
1693	0	58057	27962	93	
1694	0	58058	27962	93	
1695	0	58051	27970	93	
1696	0	58056	27970	93	
1697	0	58058	27968	93	
1698	0	58059	27967	93	
1699	0	58061	27974	93	
1700	0	58065	27972	93	
1701	0	58068	27976	93	
1702	0	58072	27973	93	
1703	0	58061	27974	93	
1704	0	58064	27973	93	
1705	0	58065	27974	93	
1706	0	58071	27978	93	
1707	0	58067	27980	93	
1708	0	58060	27974	93	
1709	0	58055	27980	93	
1710	0	58063	27971	93	
1711	0	58049	27970	93	
1712	0	58045	27965	93	
1713	0	58044	27967	93	
1714	0	58041	27964	93	
1715	0	58043	27960	93	
1716	0	58036	27960	93	
1717	0	58042	27968	93	
1718	0	58028	27966	93	
1719	0	58029	27960	93	
1720	0	58024	27955	93	
1721	0	58036	27954	93	
1722	0	58031	27956	93	
1723	0	58027	27956	93	
1724	0	58029	27957	93	
1725	0	58027	27958	93	
1726	0	58029	27951	93	
1727	0	58023	27957	93	
1728	0	58026	27954	93	
1729	0	58023	27951	93	
1730	0	58023	27944	93	
1731	0	58022	27948	93	
1732	0	58024	27951	93	
1733	0	58027	27954	93	
1734	0	58023	27954	93	
1735	0	58014	27945	93	
1736	0	58017	27948	93	
1737	0	58013	27946	93	
1738	0	58018	27946	93	
1739	0	58019	27948	93	
1740	0	58013	27954	93	
1741	0	58010	27950	93	
1742	0	58015	27952	93	
1743	0	58023	27951	93	
1744	0	58014	27953	93	
1745	0	58020	27953	93	
1746	0	58013	27957	93	
1747	0	58016	27956	93	
1748	0	58011	27952	93	
1749	0	58023	27947	93	
1750	0	58017	27948	93	
1751	0	58022	27950	93	
1752	0	58021	27951	93	
1753	0	58019	27954	93	
1754	0	58016	27954	93	
1755	0	58025	27954	93	
1756	0	58017	27953	93	
1757	0	58015	27954	93	
1758	0	58018	27958	93	
1759	0	58029	27962	93	
1760	0	58022	27960	93	
1761	0	58029	27959	93	
1762	0	58025	27963	93	
1763	0	58031	27958	93	
1764	0	58024	27960	93	
1765	0	58020	27958	93	
1766	0	58026	27961	93	
1767	0	58021	27960	93	
1768	0	58031	27960	93	
1769	0	58032	27965	93	
1770	0	58036	27961	93	
1771	0	58037	27961	93	
1772	0	58031	27959	93	
1773	0	58034	27963	93	
1774	0	58036	27965	93	
1775	0	58027	27962	93	
1776	0	58035	27969	93	
1777	0	58036	27969	93	
1778	0	58034	27968	93	
1779	0	58040	27973	93	
1780	0	58038	27970	93	
1781	0	58037	27971	93	
1782	0	58037	27971	93	
1783	0	58032	27976	93	
1784	0	58036	27973	93	
1785	0	58044	27974	94	
1786	0	58035	27973	94	
1787	0	58036	27974	94	
1788	0	58034	27972	94	
1789	0	58039	27979	94	
1790	0	58048	27979	94	
1791	0	58038	27980	94	
1792	0	58035	27979	94	
1793	0	58037	27975	94	
1794	0	58039	27978	94	
1795	0	58043	27974	94	
1796	0	58030	27974	94	
1797	0	58034	27975	94	
1798	0	58030	27967	94	
1799	0	58024	27967	94	
1800	0	58021	27964	94	
1801	0	58019	27965	94	
1802	0	58019	27958	94	
1803	0	58023	27957	94	
1804	0	58015	27957	94	
1805	0	58007	27960	94	
1806	0	58014	27959	94	
1807	0	58005	27949	94	
1808	0	58011	27952	94	
1809	0	58009	27955	94	
1810	0	58007	27947	94	
1811	0	58011	27947	94	
1812	0	58007	27950	94	
1813	0	58010	27952	94	
1814	0	58007	27951	94	
1815	0	58007	27945	94	
1816	0	58004	27947	94	
1817	0	57993	27945	94	
1818	0	58006	27946	94	
1819	0	58000	27950	94	
1820	0	58002	27948	94	
1821	0	58001	27946	94	
1822	0	58007	27947	94	
1823	0	58004	27953	94	
1824	0	57998	27950	94	
1825	0	58008	27949	94	
1826	0	58003	27954	94	
1827	0	58004	27948	94	
1828	0	57997	27946	94	
1829	0	58002	27943	94	
1830	0	57998	27945	94	
1831	0	58001	27944	94	
1832	0	58003	27947	94	
1833	0	58010	27949	94	
1834	0	58007	27952	94	
1835	0	58002	27948	94	
1836	0	58016	27952	94	
1837	0	58006	27956	94	
1838	0	58013	27951	94	
1839	0	58013	27957	94	
1840	0	58010	27951	94	
1841	0	58018	27953	94	
1842	0	58020	27955	94	
1843	0	58013	27954	94	
1844	0	58019	27958	94	
1845	0	58022	27958	94	
1846	0	58016	27961	94	
1847	0	58021	27954	94	
1848	0	58023	27953	94	
1849	0	58025	27958	94	
1850	0	58028	27959	94	
1851	0	58026	27959	94	
1852	0	58028	27962	94	
1853	0	58026	27967	94	
1854	0	58025	27965	94	
1855	0	58036	27967	94	
1856	0	58038	27961	94	
1857	0	58030	27957	94	
1858	0	58029	27961	94	
1859	0	58032	27961	94	
1860	0	58033	27972	94	
1861	0	58040	27970	94	
1862	0	58044	27970	94	
1863	0	58047	27976	94	
1864	0	58045	27975	94	
1865	0	58048	27977	94	
1866	0	58054	27976	94	
1867	0	58045	27975	94	
1868	0	58048	27974	94	
1869	0	58057	27980	94	
1870	0	58053	27978	94	
1871	0	58059	27983	94	
1872	0	58059	27986	94	
1873	0	58062	27986	94	
1874	0	58060	27985	94	
1875	0	58054	27988	94	
1876	0	58054	27981	94	
1877	0	58057	27983	94	
1878	0	58053	27983	94	
1879	0	58061	27981	94	
1880	0	58055	27983	94	
1881	0	58048	27972	94	
1882	0	58044	27973	94	
1883	0	58048	27967	94	
1884	0	58038	27962	94	
1885	0	58039	27958	94	
1886	0	58031	27958	94	
1887	0	58030	27955	94	
1888	0	58030	27955	94	
1889	0	58025	27953	94	
1890	0	58026	27948	94	
1891	0	58019	27949	94	
1892	0	58026	27950	94	
1893	0	58021	27946	94	
1894	0	58024	27938	94	
1895	0	58024	27935	94	
1896	0	58016	27941	94	
1897	0	58023	27936	94	
1898	0	58019	27933	94	
1899	0	58022	27942	94	
1900	0	58013	27939	94	
1901	0	58019	27943	94	
1902	0	58017	27936	94	
1903	0	58027	27934	94	
1904	0	58018	27938	94	
1905	0	58027	27933	94	
1906	0	58024	27930	94	
1907	0	58021	27931	94	
1908	0	58026	27934	94	
1909	0	58029	27936	94	
1910	0	58031	27936	94	
1911	0	58028	27935	94	
1912	0	58029	27937	94	
1913	0	58028	27931	94	
1914	0	58029	27933	94	
1915	0	58036	27930	94	
1916	0	58037	27930	94	
1917	0	58038	27931	94	
1918	0	58038	27935	94	
1919	0	58041	27933	94	
1920	0	58037	27933	94	
1921	0	58049	27939	94	
1922	0	58045	27941	94	
1923	0	58054	27942	94	
1924	0	58047	27939	94	
1925	0	58055	27944	94	
1926	0	58055	27945	94	
1927	0	58058	27939	94	
1928	0	58056	27937	94	
1929	0	58061	27943	94	
1930	0	58063	27943	94	
1931	0	58066	27946	94	
1932	0	58065	27949	94	
1933	0	58068	27948	94	
1934	0	58065	27949	94	
1935	0	58073	27954	94	
1936	0	58067	27954	94	
1937	0	58077	27951	94	
1938	0	58081	27953	94	
1939	0	58081	27953	94	
1940	0	58088	27950	94	
1941	0	58079	27950	94	
1942	0	58082	27953	94	
1943	0	58093	27955	94	
1944	0	58090	27957	94	
1945	0	58090	27950	94	
1946	0	58096	27955	94	
1947	0	58092	27958	94	
1948	0	58100	27960	94	
1949	0	58101	27960	94	
1950	0	58099	27963	94	
1951	0	58110	27966	94	
1952	0	58111	27964	94	
1953	0	58113	27971	94	
1954	0	58113	27967	94	
1955	0	58116	27966	94	
1956	0	58114	27970	94	
1957	0	58113	27971	94	
1958	0	58124	27976	94	
1959	0	58122	27975	94	
1960	0	58123	27983	94	
1961	0	58116	27981	94	
1962	0	58128	27980	94	
1963	0	58125	27978	94	
1964	0	58120	27976	94	
1965	0	58120	27971	94	
1966	0	58116	27967	94	
1967	0	58114	27965	94	
1968	0	58101	27962	94	
1969	0	58098	27950	94	
1970	0	58107	27949	94	
1971	0	58095	27945	94	
1972	0	58102	27941	94	
1973	0	58097	27940	94	
1974	0	58092	27936	94	
1975	0	58089	27936	94	
1976	0	58091	27932	94	
1977	0	58097	27935	94	
1978	0	58093	27931	94	
1979	0	58099	27930	94	
1980	0	58101	27925	94	
1981	0	58102	27928	94	
1982	0	58095	27929	94	
1983	0	58101	27925	94	
1984	0	58099	27923	94	
1985	0	58092	27924	94	
1986	0	58104	27924	94	
1987	0	58099	27924	94	
1988	0	58103	27924	94	
1989	0	58109	27931	94	
1990	0	58110	27929	94	
1991	0	58104	27931	94	
1992	0	58107	27931	94	
1993	0	58110	27924	94	
1994	0	58102	27925	94	
1995	0	58111	27930	94	
1996	0	58121	27930	94	
1997	0	58113	27929	94	
1998	0	58114	27923	94	
1999	0	58123	27928	94	
2000	0	58128	27930	94	
2001	0	58126	27933	94	
2002	0	58132	27935	94	
2003	0	58132	27930	94	
2004	0	58136	27933	94	
2005	0	58136	27939	94	
2006	0	58143	27937	94	
2007	0	58142	27938	94	
2008	0	58145	27936	94	
2009	0	58149	27934	94	
2010	0	58145	27936	94	
2011	0	58154	27941	94	
2012	0	58152	27943	94	
2013	0	58160	27944	94	
2014	0	58157	27953	94	
2015	0	58157	27954	94	
2016	0	58165	27946	94	
2017	0	58170	27943	94	
2018	0	58168	27950	94	
2019	0	58163	27947	94	
2020	0	58176	27952	94	
2021	0	58176	27947	94	
2022	0	58177	27955	94	
2023	0	58183	27957	94	
2024	0	58182	27960	94	
2025	0	58193	27959	94	
2026	0	58190	27959	94	
2027	0	58184	27957	94	
2028	0	58193	27965	94	
2029	0	58197	27961	94	
2030	0	58196	27963	94	
2031	0	58198	27968	94	
2032	0	58207	27968	94	
2033	0	58208	27972	94	
2034	0	58210	27973	94	
2035	0	58209	27972	94	
2036	0	58216	27971	94	
2037	0	58211	27971	94	
2038	0	58214	27971	94	
2039	0	58214	27972	94	
2040	0	58217	27977	94	
2041	0	58227	27981	94	
2042	0	58223	27978	94	
2043	0	58225	27984	94	
2044	0	58231	27982	94	
2045	0	58226	27980	94	
2046	0	58228	27978	94	
2047	0	58238	27984	94	
2048	0	58238	27987	94	
2049	0	58233	27991	94	
2050	0	58242	27989	94	
2051	0	58246	27991	94	
2052	0	58242	27991	94	
2053	0	58247	27994	94	
2054	0	58244	27995	94	
2055	0	58250	27994	94	
2056	0	58256	27993	94	
2057	0	58246	27999	94	
2058	0	58248	28001	94	
2059	0	58261	28005	94	
2060	0	58253	27999	94	
2061	0	58259	27999	94	
2062	0	58257	27999	94	
2063	0	58246	27995	94	
2064	0	58244	27993	94	
2065	0	58239	27986	94	
2066	0	58242	27981	94	
2067	0	58234	27984	94	
2068	0	58229	27973	94	
2069	0	58232	27975	94	
2070	0	58227	27971	94	
2071	0	58230	27970	94	
2072	0	58221	27965	94	
2073	0	58224	27969	94	
2074	0	58225	27968	94	
2075	0	58226	27972	94	
2076	0	58219	27962	94	
2077	0	58222	27963	94	
2078	0	58226	27965	94	
2079	0	58218	27963	94	
2080	0	58223	27961	94	
2081	0	58222	27960	94	
2082	0	58222	27960	94	
2083	0	58225	27969	94	
2084	0	58229	27956	94	
2085	0	58224	27961	96	
2086	0	58232	27967	96	
2087	0	58225	27960	96	
2088	0	58231	27963	96	
2089	0	58235	27965	96	
2090	0	58227	27961	96	
2091	0	58230	27964	96	
2092	0	58234	27963	96	
2093	0	58231	27961	96	
2094	0	58243	27962	96	
2095	0	58234	27964	96	
2096	0	58235	27965	96	
2097	0	58244	27965	96	
2098	0	58241	27963	96	
2099	0	58246	27960	96	
2100	0	58245	27965	96	
2101	0	58249	27968	96	
2102	0	58245	27970	96	
2103	0	58253	27967	96	
2104	0	58251	27966	96	
2105	0	58260	27965	96	
2106	0	58247	27965	96	
2107	0	58255	27970	96	
2108	0	58254	27975	96	
2109	0	58254	27977	96	
2110	0	58252	27980	96	
2111	0	58262	27980	96	
2112	0	58260	27978	96	
2113	0	58268	27981	96	
2114	0	58268	27982	96	
2115	0	58262	27978	96	
2116	0	58272	27979	96	
2117	0	58266	27982	96	
2118	0	58274	27981	96	
2119	0	58267	27992	96	
2120	0	58271	27983	96	
2121	0	58263	27986	96	
2122	0	58282	27992	96	
2123	0	58282	27987	96	
2124	0	58274	27984	96	
2125	0	58285	27995	96	
2126	0	58279	27991	96	
2127	0	58286	27992	96	
2128	0	58285	27993	96	
2129	0	58280	27991	96	
2130	0	58287	27992	96	
2131	0	58286	27994	96	
2132	0	58291	27992	96	
2133	0	58290	27996	96	
2134	0	58287	27993	96	
2135	0	58288	27991	96	
2136	0	58286	27999	96	
2137	0	58293	28002	96	
2138	0	58290	27999	96	
2139	0	58295	27997	96	
2140	0	58302	27996	96	
2141	0	58299	27997	96	
2142	0	58303	27997	96	
2143	0	58296	28003	96	
2144	0	58299	28002	96	
2145	0	58310	28004	96	
2146	0	58298	28009	96	
2147	0	58307	28003	96	
2148	0	58300	28009	96	
2149	0	58305	28009	96	
2150	0	58304	28008	96	
2151	0	58304	28006	96	
2152	0	58293	28010	96	
2153	0	58309	28009	96	
2154	0	58305	28017	96	
2155	0	58304	28013	96	
2156	0	58307	28013	96	
2157	0	58304	28016	96	
2158	0	58304	28008	96	
2159	0	58299	28004	96	
2160	0	58290	27997	96	
2161	0	58290	27988	96	
2162	0	58277	27987	96	
2163	0	58278	27988	96	
2164	0	58282	27990	96	
2165	0	58278	27983	96	
2166	0	58265	27982	96	
2167	0	58273	27987	96	
2168	0	58258	27980	96	
2169	0	58262	27975	96	
2170	0	58260	27972	96	
2171	0	58262	27970	96	
2172	0	58261	27976	96	
2173	0	58267	27972	96	
2174	0	58266	27980	96	
2175	0	58266	27974	96	
2176	0	58254	27971	96	
2177	0	58258	27969	96	
2178	0	58249	27965	96	
2179	0	58251	27964	96	
2180	0	58263	27967	96	
2181	0	58261	27967	96	
2182	0	58258	27973	96	
2183	0	58267	27972	96	
2184	0	58262	27971	96	
2185	0	58260	27970	96	
2186	0	58255	27969	96	
2187	0	58263	27968	96	
2188	0	58256	27965	96	
2189	0	58253	27965	96	
2190	0	58255	27964	96	
2191	0	58252	27969	96	
2192	0	58260	27967	96	
2193	0	58258	27969	96	
2194	0	58261	27968	96	
2195	0	58260	27966	96	
2196	0	58259	27972	96	
2197	0	58258	27972	96	
2198	0	58260	27972	96	
2199	0	58259	27970	96	
2200	0	58262	27965	96	
2201	0	58261	27976	96	
2202	0	58265	27970	96	
2203	0	58268	27977	96	
2204	0	58259	27974	96	
2205	0	58267	27976	96	
2206	0	58270	27977	96	
2207	0	58267	27983	96	
2208	0	58264	27982	96	
2209	0	58267	27983	96	
2210	0	58279	27986	96	
2211	0	58277	27984	96	
2212	0	58269	27983	96	
2213	0	58280	27985	96	
2214	0	58277	27983	96	
2215	0	58276	27980	96	
2216	0	58284	27979	96	
2217	0	58287	27981	96	
2218	0	58282	27981	96	
2219	0	58279	27989	96	
2220	0	58281	27982	96	
2221	0	58284	27988	96	
2222	0	58285	27987	96	
2223	0	58294	27991	96	
2224	0	58279	27989	96	
2225	0	58284	27987	96	
2226	0	58284	27992	96	
2227	0	58287	27993	96	
2228	0	58294	27996	96	
2229	0	58299	27991	96	
2230	0	58289	27998	96	
2231	0	58301	28002	96	
2232	0	58304	28001	96	
2233	0	58299	28001	96	
2234	0	58303	28000	96	
2235	0	58295	28002	96	
2236	0	58307	28003	96	
2237	0	58303	28005	96	
2238	0	58308	28007	96	
2239	0	58301	28006	96	
2240	0	58311	28005	96	
2241	0	58310	28009	96	
2242	0	58309	28009	96	
2243	0	58314	28008	96	
2244	0	58310	28017	96	
2245	0	58312	28019	96	
2246	0	58311	28016	96	
2247	0	58298	28008	96	
2248	0	58298	28007	96	
2249	0	58294	28000	96	
2250	0	58289	27997	96	
2251	0	58284	27992	96	
2252	0	58275	27989	96	
2253	0	58277	27987	96	
2254	0	58276	27986	96	
2255	0	58274	27982	96	
2256	0	58269	27976	96	
2257	0	58270	27974	96	
2258	0	58262	27973	96	
2259	0	58264	27968	96	
2260	0	58261	27972	96	
2261	0	58256	27965	96	
2262	0	58262	27971	96	
2263	0	58259	27969	96	
2264	0	58259	27971	96	
2265	0	58252	27972	96	
2266	0	58251	27962	96	
2267	0	58262	27969	96	
2268	0	58251	27968	96	
2269	0	58254	27967	96	
2270	0	58253	27966	96	
2271	0	58254	27968	96	
2272	0	58258	27966	96	
2273	0	58261	27967	96	
2274	0	58260	27968	96	
2275	0	58256	27967	96	
2276	0	58259	27969	96	
2277	0	58260	27965	96	
2278	0	58258	27968	96	
2279	0	58263	27971	96	
2280	0	58262	27964	96	
2281	0	58259	27964	96	
2282	0	58259	27964	96	
2283	0	58257	27970	96	
2284	0	58262	27965	96	
2285	0	58269	27973	96	
2286	0	58260	27971	96	
2287	0	58261	27976	96	
2288	0	58265	27978	96	
2289	0	58272	27976	96	
2290	0	58266	27979	96	
2291	0	58267	27974	96	
2292	0	58273	27977	96	
2293	0	58267	27983	96	
2294	0	58278	27987	96	
2295	0	58269	27985	96	
2296	0	58278	27985	96	
2297	0	58274	27983	96	
2298	0	58279	27988	96	
2299	0	58278	27987	96	
2300	0	58275	27989	96	
2301	0	58280	27988	96	
2302	0	58288	27992	96	
2303	0	58287	27989	96	
2304	0	58293	27995	96	
2305	0	58294	27994	96	
2306	0	58285	27995	96	
2307	0	58287	27995	96	
2308	0	58291	27998	96	
2309	0	58296	27996	96	
2310	0	58293	28003	96	
2311	0	58297	28004	96	
2312	0	58295	28007	96	
2313	0	58302	28009	96	
2314	0	58306	28008	96	
2315	0	58306	28004	96	
2316	0	58304	28010	96	
2317	0	58303	28012	96	
2318	0	58305	28010	96	
2319	0	58307	28015	96	
2320	0	58308	28014	96	
2321	0	58310	28015	96	
2322	0	58314	28018	96	
2323	0	58316	28023	96	
2324	0	58318	28019	96	
2325	0	58319	28026	96	
2326	0	58315	28025	96	
2327	0	58317	28028	96	
2328	0	58321	28029	96	
2329	0	58323	28027	96	
2330	0	58324	28030	96	
2331	0	58329	28035	96	
2332	0	58323	28033	96	
2333	0	58323	28030	96	
2334	0	58318	28037	96	
2335	0	58325	28034	96	
2336	0	58327	28041	96	
2337	0	58335	28043	96	
2338	0	58325	28037	96	
2339	0	58334	28047	96	
2340	0	58336	28045	96	
2341	0	58335	28047	96	
2342	0	58336	28047	96	
2343	0	58329	28042	96	
2344	0	58333	28041	96	
2345	0	58324	28039	96	
2346	0	58318	28042	96	
2347	0	58320	28039	96	
2348	0	58306	28028	96	
2349	0	58303	28027	96	
2350	0	58303	28025	96	
2351	0	58299	28023	96	
2352	0	58297	28020	96	
2353	0	58296	28017	96	
2354	0	58289	28014	96	
2355	0	58289	28013	96	
2356	0	58283	28008	96	
2357	0	58289	28010	96	
2358	0	58287	28012	96	
2359	0	58281	28007	96	
2360	0	58278	28007	96	
2361	0	58280	28009	96	
2362	0	58293	28010	96	
2363	0	58281	28007	96	
2364	0	58286	28011	96	
2365	0	58287	28015	96	
2366	0	58288	28014	96	
2367	0	58286	28014	96	
2368	0	58289	28016	96	
2369	0	58290	28018	96	
2370	0	58281	28013	96	
2371	0	58289	28016	96	
2372	0	58288	28010	96	
2373	0	58278	28015	96	
2374	0	58291	28017	96	
2375	0	58288	28019	96	
2376	0	58288	28018	96	
2377	0	58290	28022	96	
2378	0	58285	28023	96	
2379	0	58291	28022	96	
2380	0	58285	28023	96	
2381	0	58288	28022	96	
2382	0	58290	28025	96	
2383	0	58289	28030	96	
2384	0	58286	28031	96	
2385	0	58296	28025	96	
2386	0	58297	28026	96	
2387	0	58293	28026	96	
2388	0	58300	28032	96	
2389	0	58294	28030	96	
2390	0	58306	28035	96	
2391	0	58299	28039	96	
2392	0	58302	28035	96	
2393	0	58298	28034	96	
2394	0	58306	28035	96	
2395	0	58298	28038	96	
2396	0	58302	28034	96	
2397	0	58300	28042	96	
2398	0	58308	28044	96	
2399	0	58306	28040	96	
2400	0	58310	28041	96	
2401	0	58316	28045	96	
2402	0	58304	28042	96	
2403	0	58311	28044	96	
2404	0	58309	28046	96	
2405	0	58314	28048	96	
2406	0	58310	28052	96	
2407	0	58309	28050	96	
2408	0	58313	28053	96	
2409	0	58318	28055	96	
2410	0	58309	28054	96	
2411	0	58319	28053	96	
2412	0	58318	28054	96	
2413	0	58315	28059	96	
2414	0	58311	28059	96	
2415	0	58321	28059	96	
2416	0	58321	28062	96	
2417	0	58317	28070	96	
2418	0	58320	28065	96	
2419	0	58315	28071	96	
2420	0	58324	28072	96	
2421	0	58323	28076	96	
2422	0	58323	28075	96	
2423	0	58322	28072	96	
2424	0	58320	28078	96	
2425	0	58328	28078	96	
2426	0	58328	28079	96	
2427	0	58331	28077	96	
2428	0	58332	28084	96	
2429	0	58337	28084	96	
2430	0	58334	28077	96	
2431	0	58330	28084	96	
2432	0	58327	28079	96	
2433	0	58327	28088	96	
2434	0	58331	28089	96	
2435	0	58333	28089	96	
2436	0	58330	28092	96	
2437	0	58339	28087	96	
2438	0	58331	28089	96	
2439	0	58332	28092	96	
2440	0	58326	28089	96	
2441	0	58334	28089	96	
2442	0	58319	28086	96	
2443	0	58316	28081	96	
2444	0	58317	28081	96	
2445	0	58314	28078	96	
2446	0	58313	28070	96	
2447	0	58314	28076	96	
2448	0	58310	28071	96	
2449	0	58307	28071	96	
2450	0	58304	28071	96	
2451	0	58299	28068	96	
2452	0	58298	28068	96	
2453	0	58296	28067	96	
2454	0	58304	28070	96	
2455	0	58302	28065	96	
2456	0	58292	28066	96	
2457	0	58299	28066	96	
2458	0	58297	28066	96	
2459	0	58299	28066	96	
2460	0	58299	28063	96	
2461	0	58299	28065	96	
2462	0	58299	28071	96	
2463	0	58290	28073	96	
2464	0	58289	28067	96	
2465	0	58296	28065	96	
2466	0	58292	28071	96	
2467	0	58292	28069	96	
2468	0	58296	28067	96	
2469	0	58289	28071	96	
2470	0	58286	28074	96	
2471	0	58295	28069	96	
2472	0	58290	28069	96	
2473	0	58292	28067	96	
2474	0	58290	28070	96	
2475	0	58289	28072	96	
2476	0	58289	28071	96	
2477	0	58291	28072	96	
2478	0	58288	28070	96	
2479	0	58284	28073	96	
2480	0	58294	28077	96	
2481	0	58289	28074	96	
2482	0	58289	28075	96	
2483	0	58294	28072	96	
2484	0	58291	28073	96	
2485	0	58292	28069	96	
2486	0	58291	28073	96	
2487	0	58296	28072	96	
2488	0	58288	28078	96	
2489	0	58288	28077	96	
2490	0	58296	28079	96	
2491	0	58295	28081	96	
2492	0	58298	28082	96	
2493	0	58299	28079	96	
2494	0	58291	28081	96	
2495	0	58301	28084	96	
2496	0	58302	28087	96	
2497	0	58298	28090	96	
2498	0	58306	28093	96	
2499	0	58302	28086	96	
2500	0	58299	28086	96	
2501	0	58298	28087	96	
2502	0	58304	28087	96	
2503	0	58307	28092	96	
2504	0	58305	28094	96	
2505	0	58297	28092	96	
2506	0	58297	28094	96	
2507	0	58307	28094	96	
2508	0	58302	28098	96	
2509	0	58300	28100	96	
2510	0	58300	28095	96	
2511	0	58301	28100	96	
2512	0	58301	28095	96	
2513	0	58300	28097	96	
2514	0	58304	28093	96	
2515	0	58300	28096	96	
2516	0	58297	28095	96	
2517	0	58295	28100	96	
2518	0	58305	28103	96	
2519	0	58309	28100	96	
2520	0	58300	28099	96	
2521	0	58312	28103	96	
2522	0	58314	28106	96	
2523	0	58303	28105	96	
2524	0	58304	28107	96	
2525	0	58306	28104	96	
2526	0	58310	28109	96	
2527	0	58301	28111	96	
2528	0	58311	28110	96	
2529	0	58311	28105	96	
2530	0	58302	28115	96	
2531	0	58303	28110	96	
2532	0	58303	28115	96	
2533	0	58307	28111	96	
2534	0	58300	28114	96	
2535	0	58305	28110	96	
2536	0	58297	28117	96	
2537	0	58298	28110	96	
2538	0	58288	28103	96	
2539	0	58284	28103	96	
2540	0	58287	28100	96	
2541	0	58278	28101	96	
2542	0	58271	28092	96	
2543	0	58273	28098	96	
2544	0	58274	28090	96	
2545	0	58275	28093	96	
2546	0	58270	28094	96	
2547	0	58269	28096	96	
2548	0	58267	28086	96	
2549	0	58263	28083	96	
2550	0	58261	28092	96	
2551	0	58260	28085	96	
2552	0	58251	28084	96	
2553	0	58257	28084	96	
2554	0	58246	28086	96	
2555	0	58259	28085	96	
2556	0	58251	28084	96	
2557	0	58253	28086	96	
2558	0	58245	28087	96	
2559	0	58246	28083	96	
2560	0	58246	28084	96	
2561	0	58243	28081	96	
2562	0	58247	28082	96	
2563	0	58245	28085	96	
2564	0	58246	28086	96	
2565	0	58242	28080	96	
2566	0	58241	28086	96	
2567	0	58234	28085	96	
2568	0	58237	28083	96	
2569	0	58237	28082	96	
2570	0	58230	28080	96	
2571	0	58236	28081	96	
2572	0	58232	28077	96	
2573	0	58232	28080	96	
2574	0	58232	28081	96	
2575	0	58238	28081	96	
2576	0	58233	28079	96	
2577	0	58237	28072	96	
2578	0	58229	28078	96	
2579	0	58234	28078	96	
2580	0	58227	28079	96	
2581	0	58232	28080	96	
2582	0	58225	28078	96	
2583	0	58233	28076	96	
2584	0	58232	28078	96	
2585	0	58229	28083	96	
2586	0	58229	28078	96	
2587	0	58223	28080	96	
2588	0	58229	28084	96	
2589	0	58221	28085	96	
2590	0	58218	28084	96	
2591	0	58232	28086	96	
2592	0	58230	28083	96	
2593	0	58228	28079	96	
2594	0	58227	28084	96	
2595	0	58222	28085	96	
2596	0	58221	28085	96	
2597	0	58223	28089	96	
2598	0	58230	28087	96	
2599	0	58223	28088	96	
2600	0	58227	28088	96	
2601	0	58221	28090	96	
2602	0	58231	28088	96	
2603	0	58223	28090	96	
2604	0	58228	28087	96	
2605	0	58221	28097	96	
2606	0	58229	28091	96	
2607	0	58217	28087	96	
2608	0	58229	28092	96	
2609	0	58215	28091	96	
2610	0	58225	28096	96	
2611	0	58224	28092	96	
2612	0	58215	28091	96	
2613	0	58225	28093	96	
2614	0	58219	28100	96	
2615	0	58216	28094	96	
2616	0	58213	28094	96	
2617	0	58219	28096	96	
2618	0	58223	28097	96	
2619	0	58214	28096	96	
2620	0	58214	28094	96	
2621	0	58215	28095	96	
2622	0	58207	28089	96	
2623	0	58201	28090	96	
2624	0	58196	28081	96	
2625	0	58203	28085	96	
2626	0	58186	28077	96	
2627	0	58194	28072	96	
2628	0	58187	28079	96	
2629	0	58187	28075	96	
2630	0	58178	28074	96	
2631	0	58183	28074	96	
2632	0	58171	28067	96	
2633	0	58170	28070	96	
2634	0	58182	28071	96	
2635	0	58172	28072	96	
2636	0	58167	28072	96	
2637	0	58176	28067	96	
2638	0	58174	28070	96	
2639	0	58168	28068	96	
2640	0	58163	28065	96	
2641	0	58160	28066	96	
2642	0	58171	28060	96	
2643	0	58164	28068	96	
2644	0	58168	28072	96	
2645	0	58171	28071	96	
2646	0	58168	28068	96	
2647	0	58154	28064	96	
2648	0	58156	28065	96	
2649	0	58162	28064	96	
2650	0	58158	28060	96	
2651	0	58165	28065	96	
2652	0	58158	28067	96	
2653	0	58155	28069	96	
2654	0	58157	28065	96	
2655	0	58160	28062	96	
2656	0	58152	28064	96	
2657	0	58156	28068	96	
2658	0	58151	28069	96	
2659	0	58154	28069	96	
2660	0	58161	28065	96	
2661	0	58162	28070	96	
2662	0	58159	28062	96	
2663	0	58157	28069	96	
2664	0	58156	28069	96	
2665	0	58163	28070	96	
2666	0	58160	28073	96	
2667	0	58156	28074	96	
2668	0	58159	28075	96	
2669	0	58157	28073	96	
2670	0	58159	28075	96	
2671	0	58169	28070	96	
2672	0	58156	28071	96	
2673	0	58165	28074	96	
2674	0	58163	28074	96	
2675	0	58171	28081	96	
2676	0	58169	28077	96	
2677	0	58157	28080	96	
2678	0	58163	28074	96	
2679	0	58160	28073	96	
2680	0	58158	28079	96	
2681	0	58164	28079	96	
2682	0	58166	28084	96	
2683	0	58161	28084	96	
2684	0	58159	28085	96	
2685	0	58166	28083	96	
2686	0	58158	28088	96	
2687	0	58154	28086	96	
2688	0	58165	28083	96	
2689	0	58170	28088	96	
2690	0	58168	28091	96	
2691	0	58166	28094	96	
2692	0	58163	28091	96	
2693	0	58164	28091	96	
2694	0	58159	28088	96	
2695	0	58161	28095	96	
2696	0	58167	28095	96	
2697	0	58165	28094	96	
2698	0	58170	28091	96	
2699	0	58170	28093	96	
2700	0	58162	28093	96	
2701	0	58172	28100	96	
2702	0	58170	28093	96	
2703	0	58168	28096	96	
2704	0	58160	28087	96	
2705	0	58151	28086	96	
2706	0	58145	28085	96	
2707	0	58153	28084	96	
2708	0	58146	28082	96	
2709	0	58145	28082	96	
2710	0	58152	28079	96	
2711	0	58143	28073	96	
2712	0	58135	28068	96	
2713	0	58134	28071	96	
2714	0	58138	28067	96	
2715	0	58127	28067	96	
2716	0	58133	28072	96	
2717	0	58124	28067	96	
2718	0	58122	28062	96	
2719	0	58119	28062	96	
2720	0	58116	28055	96	
2721	0	58122	28059	96	
2722	0	58120	28058	96	
2723	0	58119	28060	96	
2724	0	58120	28064	96	
2725	0	58112	28064	96	
2726	0	58116	28062	96	
2727	0	58109	28061	96	
2728	0	58113	28060	96	
2729	0	58107	28064	96	
2730	0	58114	28059	96	
2731	0	58109	28060	96	
2732	0	58113	28063	96	
2733	0	58108	28062	96	
2734	0	58112	28062	96	
2735	0	58109	28062	96	
2736	0	58111	28062	96	
2737	0	58104	28063	96	
2738	0	58107	28061	96	
2739	0	58101	28063	96	
2740	0	58101	28062	96	
2741	0	58098	28064	96	
2742	0	58107	28059	96	
2743	0	58098	28068	96	
2744	0	58103	28066	96	
2745	0	58107	28060	96	
2746	0	58108	28064	96	
2747	0	58101	28066	96	
2748	0	58111	28069	96	
2749	0	58106	28063	96	
2750	0	58106	28067	96	
2751	0	58104	28064	96	
2752	0	58099	28070	96	
2753	0	58108	28073	96	
2754	0	58104	28067	96	
2755	0	58113	28068	96	
2756	0	58109	28071	96	
2757	0	58113	28068	96	
2758	0	58108	28072	96	
2759	0	58111	28073	96	
2760	0	58107	28070	96	
2761	0	58115	28071	96	
2762	0	58108	28075	96	
2763	0	58114	28076	96	
2764	0	58111	28081	96	
2765	0	58110	28073	96	
2766	0	58113	28075	96	
2767	0	58109	28078	96	
2768	0	58113	28077	96	
2769	0	58111	28079	96	
2770	0	58118	28078	96	
2771	0	58120	28080	96	
2772	0	58118	28080	96	
2773	0	58110	28082	96	
2774	0	58123	28084	96	
2775	0	58114	28086	96	
2776	0	58115	28088	96	
2777	0	58114	28087	96	
2778	0	58125	28092	96	
2779	0	58116	28093	96	
2780	0	58122	28094	96	
2781	0	58115	28090	96	
2782	0	58119	28095	96	
2783	0	58117	28092	96	
2784	0	58119	28094	96	
2785	0	58119	28096	96	
2786	0	58118	28104	96	
2787	0	58120	28103	96	
2788	0	58122	28096	96	
2789	0	58127	28097	96	
2790	0	58120	28101	96	
2791	0	58126	28104	96	
2792	0	58123	28104	96	
2793	0	58127	28100	96	
2794	0	58126	28101	96	
2795	0	58126	28103	96	
2796	0	58117	28100	96	
2797	0	58128	28104	96	
2798	0	58119	28102	96	
2799	0	58117	28099	96	
2800	0	58119	28101	96	
2801	0	58111	28096	96	
2802	0	58109	28093	96	
2803	0	58100	28089	96	
2804	0	58104	28090	96	
2805	0	58097	28087	96	
2806	0	58092	28088	96	
2807	0	58092	28086	96	
2808	0	58094	28090	96	
2809	0	58094	28088	96	
2810	0	58088	28081	96	
2811	0	58093	28088	96	
2812	0	58091	28092	96	
2813	0	58083	28085	96	
2814	0	58086	28087	96	
2815	0	58080	28082	96	
2816	0	58076	28082	96	
2817	0	58076	28083	96	
2818	0	58071	28086	96	
2819	0	58075	28083	96	
2820	0	58071	28084	96	
2821	0	58069	28085	96	
2822	0	58070	28083	96	
2823	0	58069	28078	96	
2824	0	58072	28078	96	
2825	0	58063	28079	96	
2826	0	58066	28087	96	
2827	0	58066	28086	96	
2828	0	58060	28078	96	
2829	0	58064	28077	96	
2830	0	58063	28082	96	
2831	0	58064	28076	96	
2832	0	58057	28080	96	
2833	0	58063	28081	96	
2834	0	58055	28078	96	
2835	0	58059	28078	96	
2836	0	58060	28080	96	
2837	0	58062	28078	96	
2838	0	58057	28082	96	
2839	0	58047	28081	96	
2840	0	58055	28078	96	
2841	0	58050	28082	96	
2842	0	58051	28086	96	
2843	0	58064	28086	96	
2844	0	58054	28085	96	
2845	0	58057	28076	96	
2846	0	58055	28079	96	
2847	0	58054	28085	96	
2848	0	58056	28084	96	
2849	0	58054	28085	96	
2850	0	58054	28080	96	
2851	0	58053	28086	96	
2852	0	58058	28090	96	
2853	0	58055	28092	96	
2854	0	58059	28087	96	
2855	0	58048	28089	96	
2856	0	58053	28091	96	
2857	0	58060	28092	96	
2858	0	58057	28087	96	
2859	0	58051	28092	96	
2860	0	58051	28093	96	
2861	0	58054	28091	96	
2862	0	58051	28095	96	
2863	0	58057	28091	96	
2864	0	58047	28094	96	
2865	0	58056	28095	96	
2866	0	58047	28096	96	
2867	0	58058	28102	96	
2868	0	58058	28100	96	
2869	0	58055	28101	96	
2870	0	58059	28100	96	
2871	0	58058	28096	96	
2872	0	58054	28100	96	
2873	0	58052	28102	96	
2874	0	58056	28103	96	
2875	0	58054	28103	96	
2876	0	58053	28102	96	
2877	0	58046	28104	96	
2878	0	58048	28104	96	
2879	0	58045	28104	96	
2880	0	58056	28107	96	
2881	0	58049	28105	96	
2882	0	58054	28109	96	
2883	0	58063	28112	96	
2884	0	58053	28108	96	
2885	0	58052	28110	96	
2886	0	58049	28109	96	
2887	0	58046	28110	96	
2888	0	58047	28107	96	
2889	0	58034	28101	96	
2890	0	58030	28104	96	
2891	0	58033	28099	96	
2892	0	58030	28102	96	
2893	0	58025	28096	96	
2894	0	58022	28094	96	
2895	0	58029	28094	96	
2896	0	58026	28096	96	
2897	0	58025	28087	96	
2898	0	58021	28089	96	
2899	0	58022	28087	96	
2900	0	58020	28085	96	
2901	0	58020	28086	96	
2902	0	58022	28084	96	
2903	0	58011	28079	96	
2904	0	58015	28082	96	
2905	0	58008	28087	96	
2906	0	58012	28086	96	
2907	0	58005	28085	96	
2908	0	58015	28086	96	
2909	0	58009	28088	96	
2910	0	58010	28081	96	
2911	0	58008	28083	96	
2912	0	58007	28083	96	
2913	0	58007	28080	96	
2914	0	58000	28081	96	
2915	0	57995	28086	96	
2916	0	58004	28080	96	
2917	0	57999	28081	96	
2918	0	57993	28079	96	
2919	0	58004	28084	96	
2920	0	57996	28089	96	
2921	0	57995	28081	96	
2922	0	57995	28082	96	
2923	0	57996	28084	96	
2924	0	57989	28084	96	
2925	0	57997	28085	96	
2926	0	57994	28083	96	
2927	0	57988	28085	96	
2928	0	57986	28087	96	
2929	0	57987	28080	96	
2930	0	57991	28081	96	
2931	0	57985	28084	96	
2932	0	57983	28088	96	
2933	0	57990	28086	96	
2934	0	57993	28089	96	
2935	0	57982	28089	96	
2936	0	57981	28086	96	
2937	0	57991	28092	96	
2938	0	57992	28088	96	
2939	0	57984	28087	96	
2940	0	57990	28087	96	
2941	0	57989	28085	96	
2942	0	57985	28089	96	
2943	0	57988	28092	96	
2944	0	57981	28092	96	
2945	0	57984	28095	96	
2946	0	57984	28089	96	
2947	0	57981	28085	96	
2948	0	57980	28090	96	
2949	0	57985	28095	96	
2950	0	57981	28094	96	
2951	0	57978	28094	96	
2952	0	57987	28094	96	
2953	0	57985	28099	96	
2954	0	57983	28095	96	
2955	0	57991	28097	96	
2956	0	57979	28096	96	
2957	0	57980	28097	96	
2958	0	57982	28101	96	
2959	0	57989	28098	96	
2960	0	57978	28095	96	
2961	0	57982	28102	96	
2962	0	57979	28099	96	
2963	0	57987	28101	96	
2964	0	57981	28101	96	
2965	0	57987	28100	96	
2966	0	57983	28107	96	
2967	0	57983	28106	96	
2968	0	57984	28103	96	
2969	0	57982	28100	96	
2970	0	57976	28104	96	
2971	0	57972	28097	96	
2972	0	57958	28093	96	
2973	0	57958	28094	96	
2974	0	57958	28089	96	
2975	0	57956	28094	96	
2976	0	57955	28088	96	
2977	0	57950	28085	96	
2978	0	57951	28085	96	
2979	0	57953	28082	96	
2980	0	57939	28087	96	
2981	0	57944	28079	96	
2982	0	57940	28080	96	
2983	0	57944	28086	96	
2984	0	57937	28080	96	
2985	0	57939	28081	94	
2986	0	57936	28081	94	
2987	0	57927	28076	94	
2988	0	57927	28081	94	
2989	0	57934	28076	94	
2990	0	57930	28078	94	
2991	0	57922	28076	94	
2992	0	57922	28075	94	
2993	0	57923	28075	94	
2994	0	57923	28079	94	
2995	0	57921	28076	94	
2996	0	57917	28074	94	
2997	0	57911	28072	94	
2998	0	57917	28070	94	
2999	0	57909	28071	94	
3000	0	57905	28073	94	
3001	0	57906	28075	94	
3002	0	57915	28074	94	
3003	0	57907	28071	94	
3004	0	57912	28068	94	
3005	0	57897	28069	94	
3006	0	57899	28070	94	
3007	0	57901	28066	94	
3008	0	57903	28069	94	
3009	0	57902	28067	94	
3010	0	57901	28067	94	
3011	0	57902	28069	94	
3012	0	57905	28071	94	
3013	0	57895	28071	94	
3014	0	57892	28068	94	
3015	0	57903	28069	94	
3016	0	57899	28070	94	
3017	0	57894	28064	94	
3018	0	57896	28061	94	
3019	0	57890	28059	94	
3020	0	57891	28062	94	
3021	0	57900	28069	94	
3022	0	57890	28070	94	
3023	0	57893	28070	94	
3024	0	57885	28067	94	
3025	0	57889	28060	94	
3026	0	57886	28072	94	
3027	0	57877	28068	94	
3028	0	57881	28065	94	
3029	0	57889	28068	94	
3030	0	57886	28065	94	
3031	0	57885	28060	94	
3032	0	57887	28066	94	
3033	0	57887	28062	94	
3034	0	57884	28061	94	
3035	0	57874	28058	94	
3036	0	57878	28063	94	
3037	0	57882	28063	94	
3038	0	57879	28065	94	
3039	0	57877	28065	94	
3040	0	57881	28067	94	
3041	0	57879	28067	94	
3042	0	57873	28066	94	
3043	0	57879	28067	94	
3044	0	57878	28066	94	
3045	0	57872	28069	94	
3046	0	57876	28067	94	
3047	0	57867	28064	94	
3048	0	57868	28064	94	
3049	0	57865	28068	94	
3050	0	57856	28058	94	
3051	0	57854	28054	94	
3052	0	57848	28051	94	
3053	0	57842	28050	94	
3054	0	57844	28047	94	
3055	0	57841	28042	94	
3056	0	57840	28049	94	
3057	0	57840	28045	94	
3058	0	57831	28046	94	
3059	0	57840	28044	94	
3060	0	57829	28043	94	
3061	0	57827	28038	94	
3062	0	57824	28037	94	
3063	0	57813	28039	94	
3064	0	57825	28039	94	
3065	0	57820	28033	94	
3066	0	57822	28032	94	
3067	0	57811	28032	94	
3068	0	57818	28036	94	
3069	0	57811	28031	94	
3070	0	57818	28031	94	
3071	0	57813	28032	94	
3072	0	57817	28031	94	
3073	0	57806	28026	94	
3074	0	57814	28025	94	
3075	0	57807	28028	94	
3076	0	57804	28030	94	
3077	0	57803	28033	94	
3078	0	57811	28030	94	
3079	0	57810	28030	94	
3080	0	57804	28028	94	
3081	0	57806	28029	94	
3082	0	57800	28029	94	
3083	0	57800	28025	94	
3084	0	57799	28020	94	
3085	0	57800	28020	94	
3086	0	57807	28024	94	
3087	0	57803	28026	94	
3088	0	57799	28021	94	
3089	0	57803	28027	94	
3090	0	57802	28025	94	
3091	0	57801	28029	94	
3092	0	57805	28027	94	
3093	0	57806	28023	94	
3094	0	57798	28029	94	
3095	0	57799	28026	94	
3096	0	57802	28028	94	
3097	0	57800	28025	94	
3098	0	57799	28029	94	
3099	0	57799	28024	94	
3100	0	57806	28025	94	
3101	0	57804	28030	94	
3102	0	57799	28033	94	
3103	0	57803	28032	94	
3104	0	57802	28031	94	
3105	0	57807	28030	94	
3106	0	57810	28032	94	
3107	0	57804	28035	94	
3108	0	57807	28034	94	
3109	0	57806	28031	94	
3110	0	57801	28033	94	
3111	0	57801	28035	94	
3112	0	57807	28039	94	
3113	0	57804	28034	94	
3114	0	57808	28030	94	
3115	0	57807	28037	94	
3116	0	57808	28034	94	
3117	0	57809	28034	94	
3118	0	57810	28037	94	
3119	0	57808	28038	94	
3120	0	57811	28039	94	
3121	0	57805	28043	94	
3122	0	57813	28041	94	
3123	0	57809	28041	94	
3124	0	57802	28040	94	
3125	0	57805	28039	94	
3126	0	57804	28038	94	
3127	0	57809	28044	94	
3128	0	57807	28042	94	
3129	0	57813	28040	94	
3130	0	57809	28044	94	
3131	0	57808	28046	94	
3132	0	57805	28051	94	
3133	0	57810	28048	94	
3134	0	57819	28050	94	
3135	0	57810	28045	94	
3136	0	57814	28045	94	
3137	0	57802	28049	94	
3138	0	57809	28039	94	
3139	0	57804	28043	94	
3140	0	57791	28033	94	
3141	0	57792	28038	94	
3142	0	57793	28034	94	
3143	0	57787	28033	94	
3144	0	57789	28025	94	
3145	0	57778	28020	94	
3146	0	57785	28023	94	
3147	0	57786	28018	94	
3148	0	57772	28020	94	
3149	0	57778	28012	94	
3150	0	57772	28018	94	
3151	0	57778	28012	94	
3152	0	57778	28015	94	
3153	0	57774	28014	94	
3154	0	57768	28008	94	
3155	0	57765	28010	94	
3156	0	57771	28006	94	
3157	0	57761	28008	94	
3158	0	57770	28004	94	
3159	0	57768	28002	94	
3160	0	57767	28009	94	
3161	0	57772	28008	94	
3162	0	57761	28009	94	
3163	0	57764	28010	94	
3164	0	57764	28007	94	
3165	0	57767	28004	94	
3166	0	57757	28002	94	
3167	0	57765	28005	94	
3168	0	57761	28003	94	
3169	0	57761	28008	94	
3170	0	57767	28005	94	
3171	0	57758	28002	94	
3172	0	57764	28001	94	
3173	0	57756	28000	94	
3174	0	57764	27997	94	
3175	0	57760	28002	94	
3176	0	57765	28001	94	
3177	0	57762	28005	94	
3178	0	57772	28008	94	
3179	0	57770	28007	94	
3180	0	57772	28003	94	
3181	0	57767	28006	94	
3182	0	57777	28012	94	
3183	0	57768	28006	94	
3184	0	57766	28006	94	
3185	0	57773	28006	94	
3186	0	57775	28012	94	
3187	0	57771	28011	94	
3188	0	57771	28014	94	
3189	0	57779	28014	94	
3190	0	57779	28015	94	
3191	0	57778	28009	94	
3192	0	57779	28007	94	
3193	0	57782	28008	94	
3194	0	57776	28011	94	
3195	0	57774	28012	94	
3196	0	57780	28013	94	
3197	0	57786	28015	94	
3198	0	57784	28021	94	
3199	0	57792	28020	94	
3200	0	57785	28019	94	
3201	0	57791	28021	94	
3202	0	57781	28018	94	
3203	0	57793	28018	94	
3204	0	57794	28020	94	
3205	0	57787	28027	94	
3206	0	57794	28023	94	
3207	0	57792	28024	94	
3208	0	57796	28025	94	
3209	0	57795	28026	94	
3210	0	57798	28028	94	
3211	0	57792	28029	94	
3212	0	57798	28029	94	
3213	0	57802	28032	94	
3214	0	57800	28038	94	
3215	0	57800	28039	94	
3216	0	57796	28032	94	
3217	0	57806	28035	94	
3218	0	57804	28035	94	
3219	0	57804	28033	94	
3220	0	57805	28038	94	
3221	0	57810	28041	94	
3222	0	57803	28039	94	
3223	0	57804	28043	94	
3224	0	57813	28047	94	
3225	0	57805	28040	94	
3226	0	57806	28037	94	
3227	0	57808	28039	94	
3228	0	57810	28043	94	
3229	0	57814	28047	94	
3230	0	57811	28044	94	
3231	0	57811	28049	94	
3232	0	57812	28047	94	
3233	0	57816	28049	94	
3234	0	57819	28049	94	
3235	0	57817	28051	94	
3236	0	57807	28048	94	
3237	0	57819	28047	94	
3238	0	57818	28049	94	
3239	0	57803	28046	94	
3240	0	57808	28046	94	
3241	0	57802	28044	94	
3242	0	57802	28042	94	
3243	0	57806	28041	94	
3244	0	57808	28040	94	
3245	0	57809	28046	94	
3246	0	57797	28044	94	
3247	0	57803	28042	94	
3248	0	57798	28044	94	
3249	0	57802	28043	94	
3250	0	57804	28042	94	
3251	0	57794	28040	94	
3252	0	57802	28040	94	
3253	0	57794	28039	94	
3254	0	57794	28039	94	
3255	0	57795	28038	94	
3256	0	57798	28038	94	
3257	0	57798	28037	94	
3258	0	57795	28031	94	
3259	0	57800	28035	94	
3260	0	57787	28029	94	
3261	0	57793	28036	94	
3262	0	57789	28036	94	
3263	0	57790	28042	94	
3264	0	57793	28039	94	
3265	0	57797	28039	94	
3266	0	57796	28038	94	
3267	0	57795	28035	94	
3268	0	57794	28039	94	
3269	0	57784	28033	94	
3270	0	57797	28038	94	
3271	0	57792	28042	94	
3272	0	57789	28044	94	
3273	0	57790	28044	94	
3274	0	57803	28040	94	
3275	0	57795	28041	94	
3276	0	57800	28038	94	
3277	0	57795	28041	94	
3278	0	57803	28046	94	
3279	0	57793	28048	94	
3280	0	57803	28048	94	
3281	0	57808	28047	94	
3282	0	57800	28051	94	
3283	0	57802	28051	94	
3284	0	57796	28049	94	
3285	0	57803	28051	96	
3286	0	57806	28054	96	
3287	0	57797	28054	96	
3288	0	57807	28051	96	
3289	0	57801	28057	96	
3290	0	57803	28056	96	
3291	0	57801	28055	96	
3292	0	57803	28057	96	
3293	0	57813	28058	96	
3294	0	57806	28057	96	
3295	0	57804	28059	96	
3296	0	57813	28059	96	
3297	0	57807	28056	96	
3298	0	57816	28061	96	
3299	0	57818	28064	96	
3300	0	57819	28068	96	
3301	0	57808	28069	96	
3302	0	57810	28068	96	
3303	0	57822	28064	96	
3304	0	57817	28068	96	
3305	0	57809	28065	96	
3306	0	57814	28070	96	
3307	0	57821	28070	96	
3308	0	57823	28072	96	
3309	0	57819	28074	96	
3310	0	57815	28073	96	
3311	0	57823	28072	96	
3312	0	57821	28074	96	
3313	0	57824	28073	96	
3314	0	57826	28073	96	
3315	0	57830	28077	96	
3316	0	57819	28078	96	
3317	0	57823	28076	96	
3318	0	57829	28077	96	
3319	0	57829	28082	96	
3320	0	57829	28083	96	
3321	0	57823	28077	96	
3322	0	57826	28081	96	
3323	0	57828	28083	96	
3324	0	57819	28081	96	
3325	0	57826	28084	96	
3326	0	57828	28086	96	
3327	0	57824	28082	96	
3328	0	57821	28086	96	
3329	0	57830	28089	96	
3330	0	57823	28090	96	
3331	0	57830	28092	96	
3332	0	57834	28090	96	
3333	0	57832	28092	96	
3334	0	57834	28094	96	
3335	0	57824	28089	96	
3336	0	57821	28093	96	
3337	0	57826	28090	96	
3338	0	57824	28092	96	
3339	0	57820	28089	96	
3340	0	57824	28091	96	
3341	0	57816	28090	96	
3342	0	57814	28091	96	
3343	0	57815	28086	96	
3344	0	57820	28087	96	
3345	0	57815	28092	96	
3346	0	57817	28089	96	
3347	0	57814	28091	96	
3348	0	57810	28091	96	
3349	0	57810	28090	96	
3350	0	57811	28088	96	
3351	0	57812	28088	96	
3352	0	57801	28087	96	
3353	0	57805	28086	96	
3354	0	57811	28081	96	
3355	0	57812	28086	96	
3356	0	57805	28085	96	
3357	0	57804	28085	96	
3358	0	57798	28090	96	
3359	0	57808	28088	96	
3360	0	57805	28086	96	
3361	0	57799	28087	96	
3362	0	57796	28083	96	
3363	0	57795	28084	96	
3364	0	57796	28082	96	
3365	0	57803	28085	96	
3366	0	57798	28085	96	
3367	0	57799	28089	96	
3368	0	57791	28090	96	
3369	0	57793	28085	96	
3370	0	57798	28089	96	
3371	0	57790	28084	96	
3372	0	57787	28086	96	
3373	0	57792	28084	96	
3374	0	57785	28084	96	
3375	0	57788	28085	96	
3376	0	57781	28076	96	
3377	0	57789	28078	96	
3378	0	57786	28081	96	
3379	0	57790	28079	96	
3380	0	57794	28090	96	
3381	0	57784	28087	96	
3382	0	57782	28088	96	
3383	0	57784	28090	96	
3384	0	57786	28087	96	
3385	0	57785	28087	96	
3386	0	57776	28090	96	
3387	0	57778	28089	96	
3388	0	57778	28086	96	
3389	0	57788	28084	96	
3390	0	57781	28084	96	
3391	0	57782	28089	96	
3392	0	57773	28089	96	
3393	0	57780	28089	96	
3394	0	57782	28094	96	
3395	0	57781	28092	96	
3396	0	57788	28091	96	
3397	0	57786	28095	96	
3398	0	57781	28096	96	
3399	0	57780	28092	96	
3400	0	57779	28093	96	
3401	0	57783	28092	96	
3402	0	57783	28090	96	
3403	0	57785	28093	96	
3404	0	57779	28092	96	
3405	0	57778	28089	96	
3406	0	57784	28094	96	
3407	0	57785	28088	96	
3408	0	57780	28091	96	
3409	0	57786	28098	96	
3410	0	57787	28097	96	
3411	0	57789	28097	96	
3412	0	57778	28094	96	
3413	0	57777	28096	96	
3414	0	57775	28095	96	
3415	0	57786	28096	96	
3416	0	57776	28096	96	
3417	0	57783	28101	96	
3418	0	57778	28100	96	
3419	0	57780	28103	96	
3420	0	57782	28099	96	
3421	0	57785	28101	96	
3422	0	57777	28106	96	
3423	0	57783	28098	96	
3424	0	57784	28103	96	
3425	0	57779	28101	96	
3426	0	57784	28106	96	
3427	0	57780	28105	96	
3428	0	57782	28112	96	
3429	0	57779	28106	96	
3430	0	57785	28106	96	
3431	0	57786	28108	96	
3432	0	57777	28109	96	
3433	0	57774	28106	96	
3434	0	57783	28103	96	
3435	0	57776	28103	96	
3436	0	57777	28102	96	
3437	0	57769	28107	96	
3438	0	57765	28101	96	
3439	0	57769	28101	96	
3440	0	57770	28094	96	
3441	0	57765	28095	96	
3442	0	57762	28096	96	
3443	0	57762	28092	96	
3444	0	57758	28091	96	
3445	0	57760	28095	96	
3446	0	57758	28096	96	
3447	0	57763	28097	96	
3448	0	57765	28095	96	
3449	0	57761	28094	96	
3450	0	57755	28090	96	
3451	0	57752	28083	96	
3452	0	57751	28084	96	
3453	0	57749	28084	96	
3454	0	57753	28087	96	
3455	0	57751	28089	96	
3456	0	57757	28091	96	
3457	0	57752	28094	96	
3458	0	57750	28093	96	
3459	0	57756	28089	96	
3460	0	57744	28087	96	
3461	0	57751	28087	96	
3462	0	57745	28087	96	
3463	0	57752	28089	96	
3464	0	57743	28089	96	
3465	0	57755	28091	96	
3466	0	57755	28088	96	
3467	0	57754	28088	96	
3468	0	57748	28092	96	
3469	0	57752	28091	96	
3470	0	57753	28084	96	
3471	0	57744	28088	96	
3472	0	57749	28086	96	
3473	0	57749	28093	96	
3474	0	57746	28090	96	
3475	0	57748	28093	96	
3476	0	57746	28091	96	
3477	0	57754	28089	96	
3478	0	57740	28083	96	
3479	0	57750	28092	96	
3480	0	57751	28092	96	
3481	0	57747	28090	96	
3482	0	57746	28090	96	
3483	0	57753	28093	96	
3484	0	57746	28092	96	
3485	0	57749	28092	96	
3486	0	57754	28093	96	
3487	0	57749	28094	96	
3488	0	57752	28087	96	
3489	0	57752	28093	96	
3490	0	57754	28094	96	
3491	0	57759	28097	96	
3492	0	57757	28097	96	
3493	0	57754	28095	96	
3494	0	57750	28093	96	
3495	0	57756	28101	96	
3496	0	57761	28096	96	
3497	0	57753	28101	96	
3498	0	57756	28101	96	
3499	0	57757	28102	96	
3500	0	57762	28102	96	
3501	0	57761	28107	96	
3502	0	57768	28107	96	
3503	0	57762	28107	96	
3504	0	57770	28101	96	
3505	0	57762	28102	96	
3506	0	57771	28105	96	
3507	0	57768	28105	96	
3508	0	57769	28105	96	
3509	0	57769	28107	96	
3510	0	57771	28113	96	
3511	0	57763	28109	96	
3512	0	57766	28113	96	
3513	0	57761	28109	96	
3514	0	57768	28115	96	
3515	0	57764	28112	96	
3516	0	57766	28115	96	
3517	0	57769	28112	96	
3518	0	57773	28112	96	
3519	0	57772	28116	96	
3520	0	57775	28118	96	
3521	0	57767	28119	96	
3522	0	57771	28126	96	
3523	0	57776	28119	96	
3524	0	57772	28116	96	
3525	0	57765	28117	96	
3526	0	57772	28117	96	
3527	0	57767	28116	96	
3528	0	57768	28113	96	
3529	0	57765	28116	96	
3530	0	57757	28108	96	
3531	0	57760	28107	96	
3532	0	57752	28102	96	
3533	0	57751	28099	96	
3534	0	57753	28096	96	
3535	0	57752	28101	96	
3536	0	57755	28100	96	
3537	0	57752	28099	96	
3538	0	57748	28097	96	
3539	0	57744	28096	96	
3540	0	57745	28093	96	
3541	0	57749	28095	96	
3542	0	57740	28094	96	
3543	0	57736	28090	96	
3544	0	57735	28092	96	
3545	0	57733	28092	96	
3546	0	57735	28090	96	
3547	0	57730	28086	96	
3548	0	57738	28087	96	
3549	0	57739	28087	96	
3550	0	57734	28085	96	
3551	0	57730	28082	96	
3552	0	57737	28088	96	
3553	0	57734	28086	96	
3554	0	57742	28087	96	
3555	0	57735	28085	96	
3556	0	57731	28084	96	
3557	0	57731	28090	96	
3558	0	57739	28087	96	
3559	0	57739	28090	96	
3560	0	57733	28088	96	
3561	0	57733	28089	96	
3562	0	57736	28088	96	
3563	0	57736	28084	96	
3564	0	57736	28084	96	
3565	0	57740	28085	96	
3566	0	57739	28082	96	
3567	0	57745	28087	96	
3568	0	57735	28082	96	
3569	0	57737	28088	96	
3570	0	57739	28091	96	
3571	0	57738	28093	96	
3572	0	57740	28090	96	
3573	0	57745	28092	96	
3574	0	57745	28092	96	
3575	0	57739	28093	96	
3576	0	57744	28089	96	
3577	0	57746	28091	96	
3578	0	57747	28092	96	
3579	0	57752	28093	96	
3580	0	57751	28096	96	
3581	0	57754	28088	96	
3582	0	57747	28096	96	
3583	0	57755	28092	96	
3584	0	57757	28097	96	
3585	0	57754	28090	96	
3586	0	57750	28094	96	
3587	0	57755	28094	96	
3588	0	57761	28096	96	
3589	0	57753	28099	96	
3590	0	57762	28101	96	
3591	0	57758	28104	96	
3592	0	57765	28096	96	
3593	0	57763	28099	96	
3594	0	57756	28099	96	
3595	0	57755	28099	96	
3596	0	57761	28105	96	
3597	0	57765	28109	96	
3598	0	57766	28104	96	
3599	0	57766	28106	96	
3600	0	57766	28112	96	
3601	0	57776	28108	96	
3602	0	57766	28113	96	
3603	0	57767	28108	96	
3604	0	57768	28113	96	
3605	0	57774	28113	96	
3606	0	57771	28111	96	
3607	0	57772	28109	96	
3608	0	57773	28117	96	
3609	0	57784	28115	96	
3610	0	57785	28117	96	
3611	0	57790	28113	96	
3612	0	57785	28114	96	
3613	0	57774	28117	96	
3614	0	57778	28113	96	
3615	0	57781	28115	96	
3616	0	57783	28112	96	
3617	0	57782	28117	96	
3618	0	57788	28118	96	
3619	0	57783	28120	96	
3620	0	57789	28123	96	
3621	0	57784	28117	96	
3622	0	57773	28113	96	
3623	0	57776	28110	96	
3624	0	57769	28105	96	
3625	0	57765	28104	96	
3626	0	57768	28106	96	
3627	0	57760	28108	96	
3628	0	57762	28101	96	
3629	0	57759	28100	96	
3630	0	57752	28090	96	
3631	0	57758	28092	96	
3632	0	57755	28090	96	
3633	0	57757	28088	96	
3634	0	57756	28085	96	
3635	0	57749	28085	96	
3636	0	57753	28089	96	
3637	0	57745	28084	96	
3638	0	57753	28086	96	
3639	0	57741	28079	96	
3640	0	57750	28084	96	
3641	0	57746	28080	96	
3642	0	57748	28075	96	
3643	0	57745	28076	96	
3644	0	57747	28081	96	
3645	0	57748	28076	96	
3646	0	57750	28076	96	
3647	0	57752	28075	96	
3648	0	57749	28073	96	
3649	0	57747	28073	96	
3650	0	57750	28075	96	
3651	0	57751	28071	96	
3652	0	57748	28074	96	
3653	0	57756	28077	96	
3654	0	57750	28074	96	
3655	0	57744	28071	96	
3656	0	57742	28073	96	
3657	0	57750	28073	96	
3658	0	57750	28073	96	
3659	0	57752	28068	96	
3660	0	57749	28065	96	
3661	0	57752	28064	96	
3662	0	57755	28069	96	
3663	0	57752	28064	96	
3664	0	57753	28071	96	
3665	0	57760	28071	96	
3666	0	57757	28073	96	
3667	0	57756	28077	96	
3668	0	57766	28071	96	
3669	0	57763	28069	96	
3670	0	57756	28069	96	
3671	0	57757	28070	96	
3672	0	57760	28071	96	
3673	0	57759	28066	96	
3674	0	57761	28071	96	
3675	0	57768	28072	96	
3676	0	57767	28072	96	
3677	0	57771	28068	96	
3678	0	57765	28075	96	
3679	0	57775	28072	96	
3680	0	57769	28064	96	
3681	0	57766	28065	96	
3682	0	57770	28073	96	
3683	0	57773	28075	96	
3684	0	57768	28074	96	
3685	0	57777	28076	96	
3686	0	57772	28081	96	
3687	0	57774	28077	96	
3688	0	57776	28070	96	
3689	0	57779	28070	96	
3690	0	57788	28075	96	
3691	0	57789	28081	96	
3692	0	57791	28080	96	
3693	0	57790	28076	96	
3694	0	57782	28079	96	
3695	0	57788	28078	96	
3696	0	57789	28083	96	
3697	0	57796	28081	96	
3698	0	57784	28080	96	
3699	0	57783	28080	96	
3700	0	57788	28082	96	
3701	0	57789	28082	96	
3702	0	57794	28086	96	
3703	0	57801	28087	96	
3704	0	57798	28086	96	
3705	0	57804	28089	96	
3706	0	57797	28090	96	
3707	0	57796	28084	96	
3708	0	57795	28086	96	
3709	0	57794	28082	96	
3710	0	57796	28086	96	
3711	0	57803	28088	96	
3712	0	57804	28084	96	
3713	0	57792	28077	96	
3714	0	57790	28075	96	
3715	0	57777	28067	96	
3716	0	57782	28062	96	
3717	0	57781	28062	96	
3718	0	57772	28061	96	
3719	0	57774	28054	96	
3720	0	57771	28055	96	
3721	0	57765	28051	96	
3722	0	57766	28044	96	
3723	0	57769	28049	96	
3724	0	57764	28047	96	
3725	0	57767	28045	96	
3726	0	57771	28045	96	
3727	0	57765	28041	96	
3728	0	57771	28045	96	
3729	0	57764	28046	96	
3730	0	57763	28045	96	
3731	0	57769	28039	96	
3732	0	57763	28038	96	
3733	0	57763	28037	96	
3734	0	57771	28034	96	
3735	0	57767	28039	96	
3736	0	57768	28040	96	
3737	0	57774	28041	96	
3738	0	57774	28034	96	
3739	0	57784	28036	96	
3740	0	57775	28033	96	
3741	0	57787	28036	96	
3742	0	57775	28038	96	
3743	0	57784	28030	96	
3744	0	57784	28033	96	
3745	0	57790	28030	96	
3746	0	57790	28037	96	
3747	0	57782	28045	96	
3748	0	57782	28034	96	
3749	0	57791	28031	96	
3750	0	57779	28034	96	
3751	0	57797	28032	96	
3752	0	57796	28032	96	
3753	0	57796	28033	96	
3754	0	57800	28035	96	
3755	0	57800	28038	96	
3756	0	57804	28038	96	
3757	0	57807	28039	96	
3758	0	57805	28040	96	
3759	0	57808	28041	96	
3760	0	57805	28037	96	
3761	0	57805	28041	96	
3762	0	57819	28042	96	
3763	0	57821	28043	96	
3764	0	57814	28044	96	
3765	0	57815	28043	96	
3766	0	57819	28046	96	
3767	0	57824	28047	96	
3768	0	57829	28048	96	
3769	0	57830	28048	96	
3770	0	57827	28042	96	
3771	0	57827	28050	96	
3772	0	57839	28046	96	
3773	0	57842	28049	96	
3774	0	57839	28050	96	
3775	0	57842	28049	96	
3776	0	57849	28049	96	
3777	0	57846	28048	96	
3778	0	57849	28051	96	
3779	0	57844	28050	96	
3780	0	57854	28050	96	
3781	0	57849	28055	96	
3782	0	57857	28057	96	
3783	0	57851	28054	96	
3784	0	57864	28052	96	
3785	0	57861	28057	96	
3786	0	57862	28056	96	
3787	0	57866	28060	96	
3788	0	57869	28060	96	
3789	0	57877	28063	96	
3790	0	57867	28064	96	
3791	0	57878	28069	96	
3792	0	57881	28066	96	
3793	0	57881	28064	96	
3794	0	57879	28064	96	
3795	0	57883	28059	96	
3796	0	57879	28064	96	
3797	0	57872	28060	96	
3798	0	57871	28056	96	
3799	0	57860	28051	96	
3800	0	57867	28042	96	
3801	0	57859	28045	96	
3802	0	57856	28041	96	
3803	0	57852	28037	96	
3804	0	57857	28032	96	
3805	0	57856	28025	96	
3806	0	57843	28025	96	
3807	0	57851	28018	96	
3808	0	57850	28015	96	
3809	0	57856	28016	96	
3810	0	57854	28011	96	
3811	0	57852	28011	96	
3812	0	57858	28013	96	
3813	0	57860	28014	96	
3814	0	57858	28010	96	
3815	0	57860	28007	96	
3816	0	57856	28009	96	
3817	0	57853	28003	96	
3818	0	57860	28001	96	
3819	0	57861	27999	96	
3820	0	57863	28010	96	
3821	0	57865	28003	96	
3822	0	57865	28009	96	
3823	0	57872	28006	96	
3824	0	57874	28006	96	
3825	0	57879	28000	96	
3826	0	57873	27999	96	
3827	0	57874	28001	96	
3828	0	57883	28004	96	
3829	0	57888	28008	96	
3830	0	57882	28008	96	
3831	0	57891	28003	96	
3832	0	57885	28001	96	
3833	0	57888	27999	96	
3834	0	57891	27999	96	
3835	0	57898	28000	96	
3836	0	57900	28001	96	
3837	0	57902	28003	96	
3838	0	57905	28003	96	
3839	0	57905	28008	96	
3840	0	57912	28008	96	
3841	0	57918	28004	96	
3842	0	57923	28005	96	
3843	0	57916	28009	96	
3844	0	57922	28006	96	
3845	0	57929	28005	96	
3846	0	57931	28010	96	
3847	0	57936	28016	96	
3848	0	57940	28016	96	
3849	0	57943	28014	96	
3850	0	57937	28010	96	
3851	0	57944	28012	96	
3852	0	57950	28016	96	
3853	0	57949	28017	96	
3854	0	57956	28015	96	
3855	0	57959	28014	96	
3856	0	57958	28017	96	
3857	0	57961	28018	96	
3858	0	57969	28024	96	
3859	0	57967	28020	96	
3860	0	57977	28022	96	
3861	0	57981	28019	96	
3862	0	57974	28024	96	
3863	0	57979	28032	96	
3864	0	57990	28027	96	
3865	0	57991	28023	96	
3866	0	57988	28029	96	
3867	0	58001	28027	96	
3868	0	58002	28028	96	
3869	0	58005	28024	96	
3870	0	57996	28030	96	
3871	0	58008	28032	96	
3872	0	58009	28033	96	
3873	0	58007	28039	96	
3874	0	58008	28040	96	
3875	0	58018	28038	96	
3876	0	58020	28038	96	
3877	0	58020	28040	96	
3878	0	58021	28034	96	
3879	0	58014	28036	96	
3880	0	58015	28027	96	
3881	0	58011	28023	96	
3882	0	57999	28023	96	
3883	0	57997	28010	96	
3884	0	57992	28008	96	
3885	0	57989	27999	97	
3886	0	57987	27999	97	
3887	0	57988	27998	97	
3888	0	57980	27991	97	
3889	0	57989	27991	97	
3890	0	57993	27988	97	
3891	0	57978	27985	97	
3892	0	57991	27985	97	
3893	0	57990	27985	97	
3894	0	57985	27983	97	
3895	0	57985	27981	97	
3896	0	57999	27984	97	
3897	0	57997	27978	97	
3898	0	57997	27981	97	
3899	0	58003	27982	97	
3900	0	57997	27978	97	
3901	0	58001	27981	97	
3902	0	58008	27975	97	
3903	0	58007	27976	97	
3904	0	58010	27976	97	
3905	0	58016	27984	97	
3906	0	58023	27977	97	
3907	0	58016	27974	97	
3908	0	58023	27980	97	
3909	0	58025	27978	97	
3910	0	58030	27978	97	
3911	0	58031	27975	97	
3912	0	58035	27974	97	
3913	0	58029	27977	97	
3914	0	58039	27978	97	
3915	0	58042	27975	97	
3916	0	58046	27980	97	
3917	0	58038	27976	97	
3918	0	58049	27981	97	
3919	0	58050	27979	97	
3920	0	58059	27985	97	
3921	0	58063	27986	97	
3922	0	58061	27993	97	
3923	0	58064	27985	97	
3924	0	58064	27987	97	
3925	0	58078	27992	97	
3926	0	58075	27990	97	
3927	0	58078	27990	97	
3928	0	58087	27996	97	
3929	0	58088	27995	97	
3930	0	58095	27995	97	
3931	0	58092	28000	97	
3932	0	58098	28000	97	
3933	0	58105	28002	97	
3934	0	58109	28004	97	
3935	0	58113	28004	97	
3936	0	58114	28005	97	
3937	0	58109	28004	97	
3938	0	58122	28009	97	
3939	0	58118	28002	97	
3940	0	58124	28008	97	
3941	0	58122	28009	97	
3942	0	58130	28009	97	
3943	0	58128	28011	97	
3944	0	58134	28009	97	
3945	0	58142	28015	97	
3946	0	58140	28014	97	
3947	0	58141	28014	97	
3948	0	58153	28017	97	
3949	0	58152	28018	97	
3950	0	58150	28024	97	
3951	0	58159	28023	97	
3952	0	58164	28023	97	
3953	0	58170	28030	97	
3954	0	58170	28032	97	
3955	0	58172	28035	97	
3956	0	58171	28037	97	
3957	0	58177	28036	97	
3958	0	58174	28035	97	
3959	0	58181	28035	97	
3960	0	58184	28040	97	
3961	0	58188	28041	97	
3962	0	58184	28039	97	
3963	0	58190	28040	97	
3964	0	58194	28044	97	
3965	0	58185	28040	97	
3966	0	58190	28039	97	
3967	0	58174	28034	97	
3968	0	58177	28028	97	
3969	0	58169	28022	97	
3970	0	58162	28013	97	
3971	0	58167	28006	97	
3972	0	58161	28003	97	
3973	0	58160	28003	97	
3974	0	58164	28000	97	
3975	0	58161	28000	97	
3976	0	58159	27997	97	
3977	0	58162	27992	97	
3978	0	58159	27991	97	
3979	0	58153	27992	97	
3980	0	58160	27990	97	
3981	0	58155	27990	97	
3982	0	58157	27991	97	
3983	0	58164	27993	97	
3984	0	58167	27990	97	
3985	0	58166	27986	97	
3986	0	58155	27982	97	
3987	0	58167	27982	97	
3988	0	58173	27985	97	
3989	0	58170	27985	97	
3990	0	58171	27987	97	
3991	0	58173	27990	97	
3992	0	58181	27992	97	
3993	0	58180	27994	97	
3994	0	58187	27990	97	
3995	0	58187	27990	97	
3996	0	58191	27989	97	
3997	0	58185	27983	97	
3998	0	58194	27988	97	
3999	0	58189	27992	97	
4000	0	58189	27998	97	
4001	0	58198	27990	97	
4002	0	58203	27994	97	
4003	0	58198	27989	97	
4004	0	58200	27994	97	
4005	0	58211	27995	97	
4006	0	58212	27995	97	
4007	0	58216	27993	97	
4008	0	58210	27998	97	
4009	0	58223	28004	97	
4010	0	58221	28005	97	
4011	0	58223	28005	97	
4012	0	58231	28003	97	
4013	0	58231	28003	97	
4014	0	58235	28006	97	
4015	0	58238	28011	97	
4016	0	58235	28005	97	
4017	0	58242	28005	97	
4018	0	58243	28010	97	
4019	0	58252	28010	97	
4020	0	58249	28014	97	
4021	0	58245	28010	97	
4022	0	58250	28014	97	
4023	0	58253	28010	97	
4024	0	58259	28017	97	
4025	0	58264	28016	97	
4026	0	58269	28026	97	
4027	0	58272	28023	97	
4028	0	58260	28022	97	
4029	0	58268	28022	97	
4030	0	58271	28028	97	
4031	0	58272	28030	97	
4032	0	58274	28025	97	
4033	0	58279	28028	97	
4034	0	58279	28029	97	
4035	0	58280	28032	97	
4036	0	58293	28032	97	
4037	0	58289	28034	97	
4038	0	58299	28037	97	
4039	0	58294	28034	97	
4040	0	58295	28036	97	
4041	0	58298	28037	97	
4042	0	58309	28042	97	
4043	0	58306	28046	97	
4044	0	58308	28049	97	
4045	0	58312	28049	97	
4046	0	58320	28051	97	
4047	0	58320	28052	97	
4048	0	58318	28055	97	
4049	0	58323	28057	97	
4050	0	58326	28056	97	
4051	0	58326	28058	97	
4052	0	58320	28058	97	
4053	0	58333	28062	97	
4054	0	58331	28058	97	
4055	0	58327	28059	97	
4056	0	58328	28058	97	
4057	0	58327	28057	97	
4058	0	58320	28048	97	
4059	0	58316	28041	97	
4060	0	58306	28035	97	
4061	0	58300	28031	97	
4062	0	58301	28033	97	
4063	0	58302	28025	97	
4064	0	58291	28025	97	
4065	0	58297	28020	97	
4066	0	58294	28021	97	
4067	0	58292	28016	97	
4068	0	58291	28013	97	
4069	0	58292	28013	97	
4070	0	58292	28021	97	
4071	0	58296	28017	97	
4072	0	58297	28015	97	
4073	0	58291	28013	97	
4074	0	58295	28010	97	
4075	0	58296	28011	97	
4076	0	58296	28008	97	
4077	0	58295	28009	97	
4078	0	58294	28009	97	
4079	0	58292	28009	97	
4080	0	58296	28009	97	
4081	0	58310	28011	97	
4082	0	58308	28015	97	
4083	0	58303	28014	97	
4084	0	58305	28008	97	
4085	0	58307	28012	97	
4086	0	58313	28013	97	
4087	0	58315	28014	97	
4088	0	58316	28014	97	
4089	0	58320	28009	97	
4090	0	58317	28012	97	
4091	0	58317	28014	97	
4092	0	58325	28011	97	
4093	0	58324	28008	97	
4094	0	58317	28009	97	
4095	0	58329	28015	97	
4096	0	58332	28019	97	
4097	0	58336	28018	97	
4098	0	58338	28013	97	
4099	0	58341	28018	97	
4100	0	58341	28014	97	
4101	0	58339	28019	97	
4102	0	58345	28024	97	
4103	0	58349	28019	97	
4104	0	58359	28027	97	
4105	0	58353	28029	97	
4106	0	58351	28031	97	
4107	0	58363	28030	97	
4108	0	58367	28026	97	
4109	0	58356	28030	97	
4110	0	58366	28030	97	
4111	0	58368	28035	97	
4112	0	58373	28033	97	
4113	0	58378	28034	97	
4114	0	58372	28034	97	
4115	0	58380	28035	97	
4116	0	58384	28036	97	
4117	0	58388	28044	97	
4118	0	58384	28049	97	
4119	0	58388	28044	97	
4120	0	58395	28051	97	
4121	0	58390	28054	97	
4122	0	58397	28057	97	
4123	0	58396	28052	97	
4124	0	58407	28051	97	
4125	0	58404	28053	97	
4126	0	58403	28053	97	
4127	0	58404	28057	97	
4128	0	58408	28064	97	
4129	0	58410	28059	97	
4130	0	58417	28065	97	
4131	0	58413	28059	97	
4132	0	58418	28061	97	
4133	0	58419	28063	97	
4134	0	58424	28066	97	
4135	0	58434	28073	97	
4136	0	58428	28074	97	
4137	0	58436	28077	97	
4138	0	58431	28079	97	
4139	0	58431	28079	97	
4140	0	58438	28072	97	
4141	0	58437	28081	97	
4142	0	58434	28084	97	
4143	0	58447	28083	97	
4144	0	58451	28083	97	
4145	0	58446	28081	97	
4146	0	58446	28084	97	
4147	0	58450	28085	97	
4148	0	58450	28086	97	
4149	0	58451	28086	97	
4150	0	58442	28085	97	
4151	0	58447	28084	97	
4152	0	58447	28075	97	
4153	0	58442	28074	97	
4154	0	58431	28071	97	
4155	0	58423	28065	97	
4156	0	58427	28056	97	
4157	0	58424	28062	97	
4158	0	58409	28050	97	
4159	0	58419	28051	97	
4160	0	58406	28045	97	
4161	0	58417	28044	97	
4162	0	58415	28045	97	
4163	0	58415	28040	97	
4164	0	58410	28038	97	
4165	0	58410	28037	97	
4166	0	58404	28038	97	
4167	0	58399	28034	97	
4168	0	58403	28034	97	
4169	0	58407	28031	97	
4170	0	58407	28030	97	
4171	0	58405	28029	97	
4172	0	58399	28025	97	
4173	0	58408	28029	97	
4174	0	58402	28029	97	
4175	0	58409	28031	97	
4176	0	58412	28034	97	
4177	0	58415	28033	97	
4178	0	58419	28032	97	
4179	0	58419	28028	97	
4180	0	58412	28029	97	
4181	0	58412	28030	97	
4182	0	58426	28032	97	
4183	0	58417	28030	97	
4184	0	58426	28029	97	
4185	0	58429	28027	97	
4186	0	58420	28033	97	
4187	0	58427	28030	97	
4188	0	58433	28032	97	
4189	0	58426	28035	97	
4190	0	58438	28032	97	
4191	0	58440	28034	97	
4192	0	58443	28037	97	
4193	0	58444	28043	97	
4194	0	58439	28037	97	
4195	0	58440	28038	97	
4196	0	58445	28046	97	
4197	0	58454	28048	97	
4198	0	58451	28046	97	
4199	0	58462	28049	97	
4200	0	58454	28053	97	
4201	0	58463	28054	97	
4202	0	58468	28052	97	
4203	0	58471	28052	97	
4204	0	58470	28053	97	
4205	0	58474	28055	97	
4206	0	58474	28056	97	
4207	0	58470	28058	97	
4208	0	58467	28058	97	
4209	0	58473	28064	97	
4210	0	58484	28067	97	
4211	0	58480	28065	97	
4212	0	58481	28067	97	
4213	0	58488	28063	97	
4214	0	58486	28065	97	
4215	0	58494	28075	97	
4216	0	58491	28069	97	
4217	0	58497	28071	97	
4218	0	58498	28074	97	
4219	0	58507	28073	97	
4220	0	58507	28073	97	
4221	0	58506	28075	97	
4222	0	58513	28075	97	
4223	0	58509	28078	97	
4224	0	58512	28080	97	
4225	0	58519	28082	97	
4226	0	58519	28079	97	
4227	0	58512	28083	97	
4228	0	58523	28083	97	
4229	0	58523	28085	97	
4230	0	58517	28085	97	
4231	0	58528	28091	97	
4232	0	58528	28091	97	
4233	0	58538	28092	97	
4234	0	58535	28093	97	
4235	0	58541	28097	97	
4236	0	58546	28101	97	
4237	0	58539	28100	97	
4238	0	58544	28099	97	
4239	0	58546	28098	97	
4240	0	58549	28098	97	
4241	0	58549	28100	97	
4242	0	58544	28100	97	
4243	0	58549	28104	97	
4244	0	58552	28108	97	
4245	0	58542	28105	97	
4246	0	58535	28100	97	
4247	0	58530	28096	97	
4248	0	58523	28087	97	
4249	0	58518	28084	97	
4250	0	58511	28069	97	
4251	0	58507	28069	97	
4252	0	58499	28069	97	
4253	0	58494	28063	97	
4254	0	58499	28060	97	
4255	0	58502	28058	97	
4256	0	58497	28053	97	
4257	0	58491	28052	97	
4258	0	58495	28056	97	
4259	0	58494	28053	97	
4260	0	58492	28048	97	
4261	0	58483	28041	97	
4262	0	58488	28044	97	
4263	0	58492	28045	97	
4264	0	58483	28041	97	
4265	0	58487	28044	97	
4266	0	58494	28039	97	
4267	0	58487	28043	97	
4268	0	58489	28039	97	
4269	0	58498	28040	97	
4270	0	58495	28042	97	
4271	0	58492	28041	97	
4272	0	58501	28040	97	
4273	0	58491	28041	97	
4274	0	58496	28042	97	
4275	0	58506	28046	97	
4276	0	58494	28041	97	
4277	0	58506	28047	97	
4278	0	58511	28043	97	
4279	0	58503	28043	97	
4280	0	58498	28042	97	
4281	0	58510	28046	97	
4282	0	58506	28049	97	
4283	0	58507	28048	97	
4284	0	58514	28047	97	
4285	0	58515	28050	97	
4286	0	58511	28052	97	
4287	0	58521	28056	97	
4288	0	58516	28052	97	
4289	0	58522	28051	97	
4290	0	58517	28050	97	
4291	0	58522	28056	97	
4292	0	58527	28057	97	
4293	0	58530	28060	97	
4294	0	58539	28064	97	
4295	0	58534	28060	97	
4296	0	58531	28062	97	
4297	0	58540	28059	97	
4298	0	58537	28059	97	
4299	0	58536	28060	97	
4300	0	58539	28056	97	
4301	0	58535	28065	97	
4302	0	58542	28067	97	
4303	0	58545	28068	97	
4304	0	58539	28066	97	
4305	0	58543	28068	97	
4306	0	58549	28066	97	
4307	0	58550	28066	97	
4308	0	58542	28067	97	
4309	0	58555	28071	97	
4310	0	58554	28071	97	
4311	0	58555	28074	97	
4312	0	58557	28076	97	
4313	0	58561	28073	97	
4314	0	58564	28081	97	
4315	0	58566	28078	97	
4316	0	58565	28077	97	
4317	0	58558	28083	97	
4318	0	58560	28084	97	
4319	0	58570	28087	97	
4320	0	58569	28088	97	
4321	0	58568	28087	97	
4322	0	58572	28084	97	
4323	0	58568	28089	97	
4324	0	58573	28087	97	
4325	0	58574	28085	97	
4326	0	58574	28092	97	
4327	0	58582	28090	97	
4328	0	58579	28099	97	
4329	0	58575	28092	97	
4330	0	58584	28097	97	
4331	0	58574	28095	97	
4332	0	58582	28094	97	
4333	0	58585	28093	97	
4334	0	58589	28097	97	
4335	0	58589	28098	97	
4336	0	58577	28095	97	
4337	0	58571	28090	97	
4338	0	58573	28091	97	
4339	0	58559	28081	97	
4340	0	58554	28076	97	
4341	0	58548	28068	97	
4342	0	58547	28064	97	
4343	0	58545	28056	97	
4344	0	58552	28055	97	
4345	0	58544	28056	97	
4346	0	58532	28055	97	
4347	0	58538	28053	97	
4348	0	58533	28048	97	
4349	0	58538	28050	97	
4350	0	58529	28045	97	
4351	0	58535	28047	97	
4352	0	58530	28046	97	
4353	0	58532	28046	97	
4354	0	58530	28039	97	
4355	0	58526	28041	97	
4356	0	58533	28039	97	
4357	0	58527	28043	97	
4358	0	58530	28047	97	
4359	0	58538	28042	97	
4360	0	58538	28047	97	
4361	0	58535	28046	97	
4362	0	58538	28047	97	
4363	0	58542	28048	97	
4364	0	58537	28045	97	
4365	0	58544	28049	97	
4366	0	58539	28047	97	
4367	0	58540	28047	97	
4368	0	58554	28052	97	
4369	0	58548	28053	97	
4370	0	58552	28049	97	
4371	0	58550	28046	97	
4372	0	58551	28045	97	
4373	0	58554	28046	97	
4374	0	58554	28052	97	
4375	0	58555	28053	97	
4376	0	58557	28049	97	
4377	0	58552	28051	97	
4378	0	58561	28060	97	
4379	0	58565	28063	97	
4380	0	58566	28060	97	
4381	0	58569	28060	97	
4382	0	58566	28062	97	
4383	0	58577	28060	97	
4384	0	58576	28066	97	
4385	0	58583	28070	97	
4386	0	58585	28069	97	
4387	0	58583	28069	97	
4388	0	58584	28070	97	
4389	0	58587	28076	97	
4390	0	58594	28075	97	
4391	0	58587	28067	97	
4392	0	58588	28075	97	
4393	0	58592	28074	97	
4394	0	58599	28080	97	
4395	0	58597	28085	97	
4396	0	58601	28080	97	
4397	0	58602	28085	97	
4398	0	58600	28084	97	
4399	0	58612	28088	97	
4400	0	58606	28087	97	
4401	0	58609	28092	97	
4402	0	58616	28090	97	
4403	0	58623	28092	97	
4404	0	58623	28093	97	
4405	0	58617	28096	97	
4406	0	58616	28097	97	
4407	0	58625	28097	97	
4408	0	58627	28102	97	
4409	0	58628	28096	97	
4410	0	58632	28099	97	
4411	0	58629	28105	97	
4412	0	58634	28109	97	
4413	0	58634	28110	97	
4414	0	58634	28110	97	
4415	0	58638	28104	97	
4416	0	58641	28110	97	
4417	0	58642	28110	97	
4418	0	58642	28111	97	
4419	0	58640	28114	97	
4420	0	58648	28112	97	
4421	0	58649	28112	97	
4422	0	58652	28109	97	
4423	0	58652	28111	97	
4424	0	58643	28109	97	
4425	0	58645	28111	97	
4426	0	58638	28102	97	
4427	0	58633	28101	97	
4428	0	58624	28090	97	
4429	0	58620	28085	97	
4430	0	58620	28081	97	
4431	0	58614	28079	97	
4432	0	58604	28077	97	
4433	0	58612	28074	97	
4434	0	58600	28066	97	
4435	0	58600	28071	97	
4436	0	58599	28067	97	
4437	0	58592	28059	97	
4438	0	58602	28060	97	
4439	0	58603	28065	97	
4440	0	58596	28064	97	
4441	0	58600	28059	97	
4442	0	58591	28059	97	
4443	0	58588	28051	97	
4444	0	58600	28053	97	
4445	0	58592	28049	97	
4446	0	58592	28049	97	
4447	0	58589	28050	97	
4448	0	58601	28052	97	
4449	0	58602	28052	97	
4450	0	58605	28057	97	
4451	0	58605	28056	97	
4452	0	58608	28053	97	
4453	0	58605	28057	97	
4454	0	58602	28055	97	
4455	0	58610	28054	97	
4456	0	58611	28053	97	
4457	0	58604	28059	97	
4458	0	58611	28056	97	
4459	0	58604	28056	97	
4460	0	58613	28055	97	
4461	0	58618	28054	97	
4462	0	58615	28054	97	
4463	0	58616	28058	97	
4464	0	58623	28064	97	
4465	0	58621	28062	97	
4466	0	58631	28065	97	
4467	0	58626	28066	97	
4468	0	58623	28067	97	
4469	0	58629	28067	97	
4470	0	58628	28067	97	
4471	0	58639	28070	97	
4472	0	58635	28070	97	
4473	0	58635	28076	97	
4474	0	58648	28070	97	
4475	0	58653	28075	97	
4476	0	58651	28075	97	
4477	0	58653	28077	97	
4478	0	58649	28080	97	
4479	0	58651	28085	97	
4480	0	58663	28085	97	
4481	0	58666	28083	97	
4482	0	58662	28091	97	
4483	0	58662	28086	97	
4484	0	58673	28087	97	
4485	0	58673	28089	96	
4486	0	58677	28088	96	
4487	0	58674	28091	96	
4488	0	58677	28095	96	
4489	0	58686	28098	96	
4490	0	58687	28100	96	
4491	0	58688	28098	96	
4492	0	58694	28101	96	
4493	0	58683	28102	96	
4494	0	58694	28104	96	
4495	0	58691	28106	96	
4496	0	58696	28107	96	
4497	0	58690	28111	96	
4498	0	58701	28111	96	
4499	0	58704	28112	96	
4500	0	58693	28115	96	
4501	0	58707	28109	96	
4502	0	58707	28112	96	
4503	0	58702	28116	96	
4504	0	58708	28116	96	
4505	0	58705	28121	96	
4506	0	58706	28125	96	
4507	0	58712	28127	96	
4508	0	58721	28123	96	
4509	0	58719	28127	96	
4510	0	58724	28128	96	
4511	0	58724	28126	96	
4512	0	58721	28135	96	
4513	0	58726	28133	96	
4514	0	58729	28137	96	
4515	0	58730	28140	96	
4516	0	58729	28135	96	
4517	0	58740	28139	96	
4518	0	58737	28143	96	
4519	0	58739	28141	96	
4520	0	58734	28142	96	
4521	0	58740	28142	96	
4522	0	58739	28138	96	
4523	0	58739	28139	96	
4524	0	58730	28132	96	
4525	0	58728	28126	96	
4526	0	58719	28123	96	
4527	0	58708	28120	96	
4528	0	58705	28109	96	
4529	0	58695	28104	96	
4530	0	58694	28103	96	
4531	0	58695	28100	96	
4532	0	58687	28089	96	
4533	0	58683	28094	96	
4534	0	58682	28091	96	
4535	0	58685	28088	96	
4536	0	58682	28087	96	
4537	0	58680	28079	96	
4538	0	58678	28081	96	
4539	0	58677	28076	96	
4540	0	58667	28073	96	
4541	0	58670	28076	96	
4542	0	58672	28069	96	
4543	0	58676	28075	96	
4544	0	58670	28069	96	
4545	0	58668	28073	96	
4546	0	58673	28070	96	
4547	0	58670	28067	96	
4548	0	58668	28067	96	
4549	0	58673	28073	96	
4550	0	58667	28071	96	
4551	0	58685	28072	96	
4552	0	58684	28074	96	
4553	0	58683	28073	96	
4554	0	58688	28073	96	
4555	0	58684	28075	96	
4556	0	58688	28073	96	
4557	0	58688	28074	96	
4558	0	58691	28073	96	
4559	0	58690	28076	96	
4560	0	58687	28072	96	
4561	0	58683	28072	96	
4562	0	58691	28069	96	
4563	0	58692	28069	96	
4564	0	58696	28071	96	
4565	0	58698	28079	96	
4566	0	58700	28079	96	
4567	0	58697	28082	96	
4568	0	58694	28079	96	
4569	0	58706	28080	96	
4570	0	58712	28076	96	
4571	0	58706	28086	96	
4572	0	58711	28085	96	
4573	0	58720	28088	96	
4574	0	58719	28093	96	
4575	0	58724	28088	96	
4576	0	58720	28090	96	
4577	0	58726	28094	96	
4578	0	58723	28090	96	
4579	0	58729	28090	96	
4580	0	58732	28089	96	
4581	0	58738	28095	96	
4582	0	58738	28094	96	
4583	0	58734	28096	96	
4584	0	58729	28098	96	
4585	0	58738	28100	96	
4586	0	58739	28105	96	
4587	0	58740	28103	96	
4588	0	58746	28104	96	
4589	0	58750	28104	96	
4590	0	58745	28105	96	
4591	0	58745	28110	96	
4592	0	58757	28111	96	
4593	0	58750	28108	96	
4594	0	58761	28114	96	
4595	0	58760	28108	96	
4596	0	58767	28115	96	
4597	0	58768	28111	96	
4598	0	58765	28119	96	
4599	0	58763	28116	96	
4600	0	58764	28117	96	
4601	0	58773	28118	96	
4602	0	58773	28115	96	
4603	0	58781	28121	96	
4604	0	58780	28124	96	
4605	0	58784	28123	96	
4606	0	58784	28127	96	
4607	0	58789	28129	96	
4608	0	58787	28130	96	
4609	0	58790	28131	96	
4610	0	58790	28135	96	
4611	0	58787	28131	96	
4612	0	58791	28131	96	
4613	0	58794	28133	96	
4614	0	58790	28136	96	
4615	0	58799	28134	96	
4616	0	58798	28132	96	
4617	0	58796	28133	96	
4618	0	58790	28126	96	
4619	0	58770	28116	96	
4620	0	58764	28111	96	
4621	0	58766	28103	96	
4622	0	58747	28097	96	
4623	0	58745	28094	96	
4624	0	58741	28094	96	
4625	0	58742	28086	96	
4626	0	58740	28085	96	
4627	0	58732	28079	96	
4628	0	58734	28081	96	
4629	0	58730	28074	96	
4630	0	58738	28076	96	
4631	0	58733	28078	96	
4632	0	58738	28076	96	
4633	0	58741	28070	96	
4634	0	58734	28071	96	
4635	0	58741	28070	96	
4636	0	58734	28077	96	
4637	0	58736	28068	96	
4638	0	58741	28073	96	
4639	0	58749	28078	96	
4640	0	58751	28081	96	
4641	0	58744	28076	96	
4642	0	58754	28076	96	
4643	0	58750	28079	96	
4644	0	58758	28081	96	
4645	0	58758	28079	96	
4646	0	58752	28077	96	
4647	0	58754	28072	96	
4648	0	58749	28077	96	
4649	0	58759	28080	96	
4650	0	58752	28078	96	
4651	0	58749	28080	96	
4652	0	58754	28078	96	
4653	0	58755	28080	96	
4654	0	58757	28082	96	
4655	0	58759	28083	96	
4656	0	58765	28084	96	
4657	0	58762	28085	96	
4658	0	58771	28083	96	
4659	0	58765	28084	96	
4660	0	58769	28081	96	
4661	0	58781	28082	96	
4662	0	58774	28087	96	
4663	0	58779	28088	96	
4664	0	58785	28091	96	
4665	0	58784	28093	96	
4666	0	58785	28099	96	
4667	0	58786	28100	96	
4668	0	58793	28092	96	
4669	0	58788	28098	96	
4670	0	58800	28105	96	
4671	0	58794	28107	96	
4672	0	58801	28104	96	
4673	0	58808	28107	96	
4674	0	58806	28109	96	
4675	0	58802	28107	96	
4676	0	58803	28106	96	
4677	0	58809	28111	96	
4678	0	58814	28117	96	
4679	0	58818	28117	96	
4680	0	58822	28120	96	
4681	0	58823	28119	96	
4682	0	58818	28125	96	
4683	0	58816	28124	96	
4684	0	58826	28123	96	
4685	0	58832	28119	96	
4686	0	58830	28125	96	
4687	0	58832	28129	96	
4688	0	58836	28134	96	
4689	0	58835	28133	96	
4690	0	58842	28134	96	
4691	0	58843	28138	96	
4692	0	58852	28137	96	
4693	0	58851	28141	96	
4694	0	58847	28142	96	
4695	0	58849	28137	96	
4696	0	58841	28138	96	
4697	0	58839	28136	96	
4698	0	58833	28128	96	
4699	0	58830	28117	96	
4700	0	58813	28115	96	
4701	0	58806	28106	96	
4702	0	58805	28096	96	
4703	0	58798	28092	96	
4704	0	58780	28090	96	
4705	0	58787	28083	96	
4706	0	58784	28077	96	
4707	0	58777	28073	96	
4708	0	58777	28069	96	
4709	0	58778	28071	96	
4710	0	58774	28074	96	
4711	0	58775	28065	96	
4712	0	58771	28069	96	
4713	0	58771	28061	96	
4714	0	58773	28059	96	
4715	0	58771	28058	96	
4716	0	58769	28058	96	
4717	0	58769	28054	96	
4718	0	58771	28057	96	
4719	0	58768	28057	96	
4720	0	58779	28055	96	
4721	0	58771	28059	96	
4722	0	58780	28060	96	
4723	0	58768	28056	96	
4724	0	58776	28055	96	
4725	0	58788	28059	96	
4726	0	58789	28057	96	
4727	0	58789	28055	96	
4728	0	58791	28062	96	
4729	0	58793	28060	96	
4730	0	58795	28061	96	
4731	0	58792	28060	96	
4732	0	58792	28057	96	
4733	0	58791	28058	96	
4734	0	58802	28062	96	
4735	0	58803	28062	96	
4736	0	58795	28073	96	
4737	0	58800	28072	96	
4738	0	58798	28074	96	
4739	0	58808	28072	96	
4740	0	58817	28079	96	
4741	0	58817	28076	96	
4742	0	58817	28076	96	
4743	0	58820	28084	96	
4744	0	58820	28082	96	
4745	0	58819	28087	96	
4746	0	58821	28085	96	
4747	0	58829	28084	96	
4748	0	58829	28084	96	
4749	0	58833	28088	96	
4750	0	58827	28085	96	
4751	0	58833	28088	96	
4752	0	58845	28093	96	
4753	0	58848	28100	96	
4754	0	58838	28098	96	
4755	0	58848	28093	96	
4756	0	58849	28098	96	
4757	0	58849	28095	96	
4758	0	58852	28100	96	
4759	0	58858	28103	96	
4760	0	58859	28105	96	
4761	0	58866	28110	96	
4762	0	58872	28110	96	
4763	0	58873	28118	96	
4764	0	58864	28113	96	
4765	0	58864	28119	96	
4766	0	58867	28118	96	
4767	0	58873	28120	96	
4768	0	58874	28118	96	
4769	0	58886	28123	96	
4770	0	58880	28122	96	
4771	0	58881	28131	96	
4772	0	58886	28138	96	
4773	0	58890	28133	96	
4774	0	58892	28137	96	
4775	0	58894	28133	96	
4776	0	58889	28123	96	
4777	0	58882	28121	96	
4778	0	58868	28116	96	
4779	0	58866	28104	96	
4780	0	58852	28095	96	
4781	0	58852	28091	96	
4782	0	58843	28084	96	
4783	0	58831	28078	96	
4784	0	58831	28075	96	
4785	0	58831	28068	96	
4786	0	58822	28067	96	
4787	0	58823	28066	96	
4788	0	58820	28060	96	
4789	0	58820	28063	96	
4790	0	58815	28058	96	
4791	0	58810	28054	96	
4792	0	58813	28050	96	
4793	0	58814	28053	96	
4794	0	58805	28048	96	
4795	0	58802	28043	96	
4796	0	58806	28041	96	
4797	0	58805	28037	96	
4798	0	58804	28041	96	
4799	0	58809	28044	96	
4800	0	58811	28047	96	
4801	0	58813	28043	96	
4802	0	58818	28044	96	
4803	0	58822	28046	96	
4804	0	58815	28048	96	
4805	0	58821	28045	96	
4806	0	58822	28044	96	
4807	0	58821	28046	96	
4808	0	58819	28051	96	
4809	0	58832	28046	96	
4810	0	58830	28042	96	
4811	0	58834	28047	96	
4812	0	58836	28055	96	
4813	0	58843	28052	96	
4814	0	58842	28052	96	
4815	0	58849	28055	96	
4816	0	58851	28059	96	
4817	0	58855	28058	96	
4818	0	58853	28060	96	
4819	0	58865	28063	96	
4820	0	58859	28068	96	
4821	0	58863	28063	96	
4822	0	58874	28067	96	
4823	0	58872	28069	96	
4824	0	58884	28073	96	
4825	0	58873	28075	96	
4826	0	58888	28082	96	
4827	0	58887	28085	96	
4828	0	58884	28081	96	
4829	0	58890	28086	96	
4830	0	58889	28084	96	
4831	0	58899	28089	96	
4832	0	58904	28094	96	
4833	0	58912	28092	96	
4834	0	58904	28100	96	
4835	0	58916	28105	96	
4836	0	58924	28102	96	
4837	0	58915	28106	96	
4838	0	58924	28105	96	
4839	0	58914	28105	96	
4840	0	58923	28105	96	
4841	0	58923	28109	96	
4842	0	58924	28113	96	
4843	0	58925	28113	96	
4844	0	58933	28112	96	
4845	0	58936	28119	96	
4846	0	58934	28119	96	
4847	0	58941	28127	96	
4848	0	58948	28124	96	
4849	0	58948	28132	96	
4850	0	58953	28136	96	
4851	0	58955	28141	96	
4852	0	58962	28137	96	
4853	0	58958	28140	96	
4854	0	58967	28146	96	
4855	0	58966	28145	96	
4856	0	58979	28150	96	
4857	0	58976	28150	96	
4858	0	58977	28150	96	
4859	0	58978	28155	96	
4860	0	58987	28149	96	
4861	0	58989	28160	96	
4862	0	58994	28158	96	
4863	0	58996	28164	96	
4864	0	58996	28164	96	
4865	0	58998	28164	96	
4866	0	58992	28165	96	
4867	0	59005	28167	96	
4868	0	58998	28169	96	
4869	0	59005	28170	96	
4870	0	59009	28177	96	
4871	0	59009	28177	96	
4872	0	59017	28176	96	
4873	0	59010	28183	96	
4874	0	59015	28182	96	
4875	0	59019	28189	96	
4876	0	59013	28183	96	
4877	0	59013	28182	96	
4878	0	59018	28180	96	
4879	0	59013	28177	96	
4880	0	59002	28173	96	
4881	0	58994	28162	96	
4882	0	58988	28151	96	
4883	0	58968	28140	96	
4884	0	58960	28135	96	
4885	0	58960	28137	96	
4886	0	58955	28130	96	
4887	0	58954	28121	96	
4888	0	58950	28118	96	
4889	0	58945	28117	96	
4890	0	58948	28119	96	
4891	0	58941	28115	96	
4892	0	58942	28113	96	
4893	0	58940	28108	96	
4894	0	58945	28106	96	
4895	0	58943	28108	96	
4896	0	58938	28106	96	
4897	0	58937	28107	96	
4898	0	58939	28114	96	
4899	0	58934	28105	96	
4900	0	58936	28106	96	
4901	0	58941	28105	96	
4902	0	58940	28112	96	
4903	0	58946	28110	96	
4904	0	58948	28111	96	
4905	0	58946	28115	96	
4906	0	58952	28112	96	
4907	0	58945	28113	96	
4908	0	58955	28117	96	
4909	0	58945	28114	96	
4910	0	58952	28113	96	
4911	0	58949	28115	96	
4912	0	58958	28118	96	
4913	0	58960	28121	96	
4914	0	58967	28115	96	
4915	0	58954	28115	96	
4916	0	58965	28116	96	
4917	0	58965	28120	96	
4918	0	58974	28127	96	
4919	0	58973	28124	96	
4920	0	58970	28128	96	
4921	0	58974	28127	96	
4922	0	58977	28125	96	
4923	0	58978	28127	96	
4924	0	58986	28126	96	
4925	0	58982	28130	96	
4926	0	58984	28135	96	
4927	0	58990	28141	96	
4928	0	58993	28139	96	
4929	0	59000	28136	96	
4930	0	59004	28139	96	
4931	0	58996	28143	96	
4932	0	59005	28150	96	
4933	0	59008	28148	96	
4934	0	59010	28148	96	
4935	0	59008	28150	96	
4936	0	59012	28148	96	
4937	0	59007	28155	96	
4938	0	59011	28161	96	
4939	0	59019	28157	96	
4940	0	59021	28159	96	
4941	0	59024	28158	96	
4942	0	59020	28164	96	
4943	0	59027	28167	96	
4944	0	59035	28167	96	
4945	0	59035	28172	96	
4946	0	59025	28173	96	
4947	0	59028	28174	96	
4948	0	59030	28173	96	
4949	0	59037	28174	96	
4950	0	59038	28175	96	
4951	0	59042	28176	96	
4952	0	59037	28182	96	
4953	0	59041	28182	96	
4954	0	59053	28187	96	
4955	0	59055	28191	96	
4956	0	59056	28190	96	
4957	0	59056	28193	96	
4958	0	59050	28191	96	
4959	0	59056	28195	96	
4960	0	59057	28197	96	
4961	0	59056	28197	96	
4962	0	59058	28202	96	
4963	0	59059	28203	96	
4964	0	59066	28198	96	
4965	0	59069	28199	96	
4966	0	59074	28202	96	
4967	0	59076	28203	96	
4968	0	59062	28206	96	
4969	0	59063	28196	96	
4970	0	59050	28188	96	
4971	0	59045	28184	96	
4972	0	59040	28173	96	
4973	0	59025	28170	96	
4974	0	59029	28165	96	
4975	0	59009	28159	96	
4976	0	59012	28161	96	
4977	0	59009	28156	96	
4978	0	59009	28151	96	
4979	0	59003	28142	96	
4980	0	59005	28150	96	
4981	0	58997	28145	96	
4982	0	59007	28145	96	
4983	0	59008	28141	96	
4984	0	59008	28149	96	
4985	0	59004	28143	96	
4986	0	59004	28147	96	
4987	0	59006	28147	96	
4988	0	58997	28147	96	
4989	0	59007	28148	96	
4990	0	59006	28151	96	
4991	0	59005	28157	96	
4992	0	59018	28152	96	
4993	0	59010	28153	96	
4994	0	59019	28159	96	
4995	0	59024	28160	96	
4996	0	59019	28157	96	
4997	0	59023	28161	96	
4998	0	59024	28165	96	
4999	0	59018	28158	96	
5000	0	59016	28162	96	
5001	0	59017	28165	96	
5002	0	59022	28162	96	
5003	0	59018	28161	96	
5004	0	59031	28163	96	
5005	0	59028	28158	96	
5006	0	59031	28162	96	
5007	0	59035	28172	96	
5008	0	59036	28166	96	
5009	0	59036	28171	96	
5010	0	59042	28171	96	
5011	0	59042	28170	96	
5012	0	59044	28173	96	
5013	0	59051	28180	96	
5014	0	59045	28176	96	
5015	0	59050	28177	96	
5016	0	59052	28180	96	
5017	0	59053	28182	96	
5018	0	59061	28186	96	
5019	0	59067	28191	96	
5020	0	59062	28187	96	
5021	0	59063	28191	96	
5022	0	59062	28193	96	
5023	0	59065	28189	96	
5024	0	59065	28189	96	
5025	0	59067	28191	96	
5026	0	59074	28194	96	
5027	0	59070	28197	96	
5028	0	59081	28200	96	
5029	0	59085	28203	96	
5030	0	59086	28203	96	
5031	0	59084	28206	96	
5032	0	59092	28210	96	
5033	0	59093	28212	96	
5034	0	59085	28218	96	
5035	0	59092	28210	96	
5036	0	59099	28218	96	
5037	0	59102	28217	96	
5038	0	59096	28223	96	
5039	0	59097	28222	96	
5040	0	59099	28222	96	
5041	0	59101	28224	96	
5042	0	59109	28224	96	
5043	0	59110	28234	96	
5044	0	59107	28234	96	
5045	0	59117	28228	96	
5046	0	59111	28237	96	
5047	0	59123	28241	96	
5048	0	59123	28239	96	
5049	0	59121	28235	96	
5050	0	59118	28235	96	
5051	0	59114	28238	96	
5052	0	59111	28235	96	
5053	0	59105	28231	96	
5054	0	59095	28225	96	
5055	0	59091	28221	96	
5056	0	59078	28215	96	
5057	0	59078	28200	96	
5058	0	59066	28201	96	
5059	0	59061	28194	96	
5060	0	59068	28191	96	
5061	0	59055	28189	96	
5062	0	59057	28185	96	
5063	0	59047	28177	96	
5064	0	59053	28181	96	
5065	0	59053	28181	96	
5066	0	59050	28176	96	
5067	0	59042	28176	96	
5068	0	59043	28178	96	
5069	0	59035	28168	96	
5070	0	59039	28168	96	
5071	0	59036	28164	96	
5072	0	59038	28169	96	
5073	0	59040	28172	96	
5074	0	59040	28168	96	
5075	0	59045	28175	96	
5076	0	59040	28171	96	
5077	0	59044	28171	96	
5078	0	59046	28173	96	
5079	0	59051	28177	96	
5080	0	59043	28174	96	
5081	0	59052	28173	96	
5082	0	59048	28175	96	
5083	0	59054	28175	96	
5084	0	59053	28180	96	
5085	0	59061	28179	96	
5086	0	59060	28181	96	
5087	0	59058	28181	96	
5088	0	59059	28178	96	
5089	0	59055	28181	96	
5090	0	59061	28179	96	
5091	0	59067	28182	96	
5092	0	59056	28184	96	
5093	0	59061	28189	96	
5094	0	59072	28191	96	
5095	0	59068	28189	96	
5096	0	59078	28190	96	
5097	0	59074	28193	96	
5098	0	59073	28194	96	
5099	0	59078	28195	96	
5100	0	59078	28204	96	
5101	0	59081	28204	96	
5102	0	59082	28207	96	
5103	0	59092	28205	96	
5104	0	59085	28205	96	
5105	0	59091	28211	96	
5106	0	59088	28207	96	
5107	0	59096	28206	96	
5108	0	59099	28213	96	
5109	0	59101	28215	96	
5110	0	59100	28212	96	
5111	0	59106	28220	96	
5112	0	59110	28224	96	
5113	0	59105	28219	96	
5114	0	59109	28222	96	
5115	0	59113	28226	96	
5116	0	59106	28231	96	
5117	0	59108	28232	96	
5118	0	59118	28232	96	
5119	0	59111	28231	96	
5120	0	59114	28238	96	
5121	0	59124	28240	96	
5122	0	59127	28242	96	
5123	0	59122	28245	96	
5124	0	59122	28244	96	
5125	0	59129	28247	96	
5126	0	59133	28249	96	
5127	0	59131	28245	96	
5128	0	59135	28250	96	
5129	0	59143	28254	96	
5130	0	59134	28252	96	
5131	0	59133	28253	96	
5132	0	59136	28256	96	
5133	0	59143	28260	96	
5134	0	59144	28265	96	
5135	0	59139	28269	96	
5136	0	59144	28260	96	
5137	0	59142	28267	96	
5138	0	59143	28264	96	
5139	0	59135	28259	96	
5140	0	59128	28254	96	
5141	0	59125	28252	96	
5142	0	59112	28244	96	
5143	0	59099	28238	96	
5144	0	59104	28229	96	
5145	0	59093	28217	96	
5146	0	59080	28220	96	
5147	0	59081	28219	96	
5148	0	59075	28210	96	
5149	0	59073	28208	96	
5150	0	59072	28206	96	
5151	0	59065	28195	96	
5152	0	59063	28196	96	
5153	0	59063	28200	96	
5154	0	59059	28194	96	
5155	0	59060	28196	96	
5156	0	59062	28195	96	
5157	0	59059	28196	96	
5158	0	59054	28192	96	
5159	0	59049	28191	96	
5160	0	59057	28195	96	
5161	0	59055	28188	96	
5162	0	59055	28190	96	
5163	0	59060	28188	96	
5164	0	59062	28192	96	
5165	0	59057	28196	96	
5166	0	59058	28198	96	
5167	0	59064	28201	96	
5168	0	59058	28197	96	
5169	0	59059	28198	96	
5170	0	59057	28197	96	
5171	0	59060	28197	96	
5172	0	59059	28196	96	
5173	0	59055	28199	96	
5174	0	59047	28193	96	
5175	0	59055	28200	96	
5176	0	59051	28199	96	
5177	0	59050	28198	96	
5178	0	59055	28203	96	
5179	0	59061	28204	96	
5180	0	59065	28205	96	
5181	0	59063	28207	96	
5182	0	59066	28206	96	
5183	0	59071	28210	96	
5184	0	59067	28214	96	
5185	0	59062	28211	96	
5186	0	59060	28211	96	
5187	0	59067	28213	96	
5188	0	59064	28218	96	
5189	0	59070	28216	96	
5190	0	59066	28218	96	
5191	0	59073	28215	96	
5192	0	59066	28219	96	
5193	0	59069	28220	96	
5194	0	59064	28220	96	
5195	0	59068	28220	96	
5196	0	59071	28222	96	
5197	0	59068	28224	96	
5198	0	59069	28226	96	
5199	0	59068	28228	96	
5200	0	59079	28226	96	
5201	0	59072	28227	96	
5202	0	59084	28232	96	
5203	0	59072	28236	96	
5204	0	59078	28232	96	
5205	0	59072	28237	96	
5206	0	59080	28234	96	
5207	0	59073	28233	96	
5208	0	59078	28231	96	
5209	0	59085	28242	96	
5210	0	59076	28241	96	
5211	0	59087	28245	96	
5212	0	59090	28244	96	
5213	0	59090	28247	96	
5214	0	59090	28249	96	
5215	0	59091	28251	96	
5216	0	59088	28250	96	
5217	0	59089	28242	96	
5218	0	59084	28247	96	
5219	0	59085	28246	96	
5220	0	59092	28251	96	
5221	0	59085	28249	96	
5222	0	59084	28250	96	
5223	0	59082	28247	96	
5224	0	59070	28242	96	
5225	0	59060	28233	96	
5226	0	59054	28228	96	
5227	0	59045	28220	96	
5228	0	59042	28224	96	
5229	0	59041	28218	96	
5230	0	59036	28214	96	
5231	0	59027	28209	96	
5232	0	59029	28203	96	
