# OpenSignals Text File Format. Version 1
# {"84:2E:14:0C:D8:EF": {"position": 0, "device": "biosignalsplux", "device name": "84:2E:14:0C:D8:EF", "device connection": "BTH84:2E:14:0C:D8:EF", "sampling rate": 100, "resolution": [16, 16], "firmware version": 779, "comments": "", "keywords": "", "mode": 0, "sync interval": 2, "date": "2026-4-23", "time": "15:57:46.650", "channels": [9, 10, 11], "sensor": ["fSpO2", "fSpO2", "%SpO2"], "label": ["CH9A", "CH9B", "%SpO2"], "column": ["nSeq", "DI", "CH9A", "CH9B", "%SpO2"], "special": [{"SpO2": [80, 40, 5, 4, 4, 4]}, {"SpO2": [80, 40, 5, 4, 4, 4]}, {"SpO2": [80, 40, 5, 4, 4, 4]}, {"SpO2": [80, 40, 5, 4, 4, 4]}, {"SpO2": [80, 40, 5, 4, 4, 4]}, {"SpO2": [80, 40, 5, 4, 4, 4]}, {"SpO2": [80, 40, 5, 4, 4, 4]}, {"SpO2": [80, 40, 5, 4, 4, 4]}, {"SpO2": [80, 40, 5, 4, 4, 4]}, {"SpO2": [80, 40, 5, 4, 4, 4]}], "digital IO": [0, 1], "virtual channels": "{'channels': [11], 'calculationChannels': [[9, 10]]}", "sleeve color": ["yellow", "yellow", "dark_blue"]}}
# EndOfHeader
0	0	45536	20209	0	
1	0	45524	20205	0	
2	0	45521	20197	0	
3	0	45510	20190	0	
4	0	45500	20177	0	
5	0	45490	20177	0	
6	0	45479	20168	0	
7	0	45485	20162	0	
8	0	45476	20161	0	
9	0	45478	20156	0	
10	0	45471	20157	0	
11	0	45465	20154	0	
12	0	45468	20149	0	
13	0	45462	20149	0	
14	0	45471	20152	0	
15	0	45463	20153	0	
16	0	45463	20154	0	
17	0	45464	20152	0	
18	0	45464	20151	0	
19	0	45464	20155	0	
20	0	45465	20153	0	
21	0	45465	20150	0	
22	0	45469	20153	0	
23	0	45477	20152	0	
24	0	45476	20154	0	
25	0	45473	20152	0	
26	0	45468	20148	0	
27	0	45463	20150	0	
28	0	45463	20149	0	
29	0	45455	20146	0	
30	0	45464	20146	0	
31	0	45463	20145	0	
32	0	45463	20145	0	
33	0	45466	20145	0	
34	0	45463	20142	0	
35	0	45472	20143	0	
36	0	45470	20141	0	
37	0	45471	20147	0	
38	0	45464	20146	0	
39	0	45472	20142	0	
40	0	45464	20146	0	
41	0	45475	20147	0	
42	0	45477	20148	0	
43	0	45477	20149	0	
44	0	45478	20149	0	
45	0	45475	20150	0	
46	0	45485	20153	0	
47	0	45488	20157	0	
48	0	45486	20153	0	
49	0	45490	20155	0	
50	0	45497	20154	0	
51	0	45490	20157	0	
52	0	45491	20157	0	
53	0	45498	20158	0	
54	0	45499	20161	0	
55	0	45500	20163	0	
56	0	45498	20160	0	
57	0	45503	20162	0	
58	0	45504	20163	0	
59	0	45510	20167	0	
60	0	45509	20166	0	
61	0	45518	20171	0	
62	0	45523	20171	0	
63	0	45519	20174	0	
64	0	45526	20171	0	
65	0	45523	20172	0	
66	0	45527	20171	0	
67	0	45521	20173	0	
68	0	45522	20173	0	
69	0	45533	20175	0	
70	0	45530	20177	0	
71	0	45526	20175	0	
72	0	45536	20178	0	
73	0	45537	20182	0	
74	0	45538	20180	0	
75	0	45530	20180	0	
76	0	45528	20174	0	
77	0	45522	20169	0	
78	0	45518	20171	0	
79	0	45505	20163	0	
80	0	45502	20158	0	
81	0	45493	20150	0	
82	0	45483	20142	0	
83	0	45477	20138	0	
84	0	45472	20137	0	
85	0	45471	20135	0	
86	0	45472	20129	0	
87	0	45472	20130	0	
88	0	45466	20125	0	
89	0	45469	20124	0	
90	0	45471	20120	0	
91	0	45472	20124	0	
92	0	45469	20118	0	
93	0	45469	20120	0	
94	0	45473	20122	0	
95	0	45472	20121	0	
96	0	45474	20119	0	
97	0	45477	20122	0	
98	0	45480	20116	0	
99	0	45480	20122	0	
100	0	45475	20119	0	
101	0	45470	20120	0	
102	0	45474	20117	0	
103	0	45475	20120	0	
104	0	45480	20114	0	
105	0	45472	20112	0	
106	0	45472	20115	0	
107	0	45470	20107	0	
108	0	45474	20109	0	
109	0	45469	20107	0	
110	0	45475	20104	0	
111	0	45471	20105	0	
112	0	45468	20099	0	
113	0	45473	20100	0	
114	0	45473	20102	0	
115	0	45476	20100	0	
116	0	45473	20099	0	
117	0	45477	20101	0	
118	0	45480	20100	0	
119	0	45484	20098	0	
120	0	45490	20096	0	
121	0	45494	20102	0	
122	0	45490	20095	0	
123	0	45490	20096	0	
124	0	45490	20094	0	
125	0	45490	20095	0	
126	0	45491	20097	0	
127	0	45486	20103	0	
128	0	45493	20100	0	
129	0	45493	20097	0	
130	0	45496	20096	0	
131	0	45498	20103	0	
132	0	45496	20094	0	
133	0	45494	20097	0	
134	0	45499	20100	0	
135	0	45503	20100	0	
136	0	45504	20101	0	
137	0	45501	20103	0	
138	0	45497	20105	0	
139	0	45505	20101	0	
140	0	45503	20103	0	
141	0	45509	20104	0	
142	0	45512	20104	0	
143	0	45511	20105	0	
144	0	45514	20109	0	
145	0	45517	20112	0	
146	0	45526	20111	0	
147	0	45526	20112	0	
148	0	45529	20112	0	
149	0	45529	20111	0	
150	0	45532	20113	0	
151	0	45533	20111	0	
152	0	45525	20115	0	
153	0	45523	20109	0	
154	0	45525	20108	0	
155	0	45516	20108	0	
156	0	45513	20105	0	
157	0	45506	20100	0	
158	0	45495	20093	0	
159	0	45480	20082	0	
160	0	45478	20079	0	
161	0	45473	20074	0	
162	0	45460	20065	0	
163	0	45455	20065	0	
164	0	45460	20056	0	
165	0	45451	20053	0	
166	0	45455	20052	0	
167	0	45448	20049	0	
168	0	45451	20045	0	
169	0	45451	20044	0	
170	0	45447	20045	0	
171	0	45446	20044	0	
172	0	45449	20049	0	
173	0	45444	20047	0	
174	0	45447	20045	0	
175	0	45454	20044	0	
176	0	45445	20041	0	
177	0	45449	20042	0	
178	0	45458	20049	0	
179	0	45453	20049	0	
180	0	45448	20041	0	
181	0	45455	20034	0	
182	0	45455	20033	0	
183	0	45450	20031	0	
184	0	45446	20026	0	
185	0	45438	20023	0	
186	0	45436	20019	0	
187	0	45427	20019	0	
188	0	45431	20012	0	
189	0	45429	20016	0	
190	0	45433	20015	0	
191	0	45427	20010	0	
192	0	45431	20013	0	
193	0	45424	20013	0	
194	0	45423	20009	0	
195	0	45434	20018	0	
196	0	45435	20012	0	
197	0	45434	20014	0	
198	0	45439	20012	0	
199	0	45440	20015	0	
200	0	45437	20012	0	
201	0	45434	20011	0	
202	0	45436	20014	0	
203	0	45436	20012	0	
204	0	45436	20012	0	
205	0	45441	20017	0	
206	0	45440	20014	0	
207	0	45444	20013	0	
208	0	45445	20009	0	
209	0	45447	20009	0	
210	0	45444	20018	0	
211	0	45444	20015	0	
212	0	45450	20017	0	
213	0	45442	20022	0	
214	0	45444	20019	0	
215	0	45458	20021	0	
216	0	45456	20018	0	
217	0	45459	20022	0	
218	0	45456	20017	0	
219	0	45457	20021	0	
220	0	45452	20019	0	
221	0	45458	20020	0	
222	0	45447	20024	0	
223	0	45454	20020	0	
224	0	45459	20024	0	
225	0	45466	20026	0	
226	0	45466	20028	0	
227	0	45459	20030	0	
228	0	45462	20026	0	
229	0	45464	20029	0	
230	0	45465	20031	0	
231	0	45463	20032	0	
232	0	45464	20034	0	
233	0	45471	20030	0	
234	0	45457	20027	0	
235	0	45448	20023	0	
236	0	45439	20015	0	
237	0	45439	20012	0	
238	0	45427	20008	0	
239	0	45424	20000	0	
240	0	45419	19995	0	
241	0	45403	19990	0	
242	0	45408	19988	0	
243	0	45399	19983	0	
244	0	45401	19984	0	
245	0	45400	19983	0	
246	0	45403	19983	0	
247	0	45408	19982	0	
248	0	45405	19978	0	
249	0	45411	19978	0	
250	0	45399	19978	0	
251	0	45411	19975	0	
252	0	45401	19972	0	
253	0	45401	19970	0	
254	0	45400	19973	0	
255	0	45405	19969	0	
256	0	45394	19971	0	
257	0	45396	19964	0	
258	0	45398	19966	0	
259	0	45399	19964	0	
260	0	45394	19961	0	
261	0	45391	19958	0	
262	0	45389	19957	0	
263	0	45393	19951	0	
264	0	45385	19952	0	
265	0	45379	19950	0	
266	0	45382	19945	0	
267	0	45378	19943	0	
268	0	45380	19946	0	
269	0	45382	19947	0	
270	0	45378	19944	0	
271	0	45380	19944	0	
272	0	45377	19940	0	
273	0	45374	19945	0	
274	0	45378	19946	0	
275	0	45380	19946	0	
276	0	45391	19946	0	
277	0	45385	19951	0	
278	0	45385	19949	0	
279	0	45386	19946	0	
280	0	45390	19945	0	
281	0	45394	19950	0	
282	0	45392	19950	0	
283	0	45397	19950	0	
284	0	45392	19949	0	
285	0	45392	19947	95	
286	0	45398	19952	95	
287	0	45396	19950	95	
288	0	45400	19954	95	
289	0	45394	19952	95	
290	0	45390	19951	95	
291	0	45390	19953	95	
292	0	45396	19956	95	
293	0	45390	19955	95	
294	0	45396	19958	95	
295	0	45409	19958	95	
296	0	45404	19965	95	
297	0	45407	19966	95	
298	0	45416	19965	95	
299	0	45415	19971	95	
300	0	45423	19971	95	
301	0	45421	19971	95	
302	0	45420	19968	95	
303	0	45421	19971	95	
304	0	45425	19971	95	
305	0	45430	19971	95	
306	0	45430	19978	95	
307	0	45425	19977	95	
308	0	45428	19974	95	
309	0	45419	19970	95	
310	0	45412	19964	95	
311	0	45406	19964	95	
312	0	45399	19959	95	
313	0	45385	19951	95	
314	0	45375	19946	95	
315	0	45373	19943	95	
316	0	45371	19935	95	
317	0	45362	19932	95	
318	0	45361	19927	95	
319	0	45362	19924	95	
320	0	45362	19921	95	
321	0	45353	19923	95	
322	0	45359	19921	95	
323	0	45351	19914	95	
324	0	45350	19922	95	
325	0	45354	19917	95	
326	0	45355	19918	95	
327	0	45354	19918	95	
328	0	45357	19914	95	
329	0	45360	19918	95	
330	0	45358	19920	95	
331	0	45358	19918	95	
332	0	45359	19919	95	
333	0	45352	19920	95	
334	0	45360	19920	95	
335	0	45356	19916	95	
336	0	45356	19911	95	
337	0	45356	19909	95	
338	0	45350	19909	95	
339	0	45349	19907	95	
340	0	45344	19906	95	
341	0	45343	19909	95	
342	0	45346	19909	95	
343	0	45344	19908	95	
344	0	45347	19907	95	
345	0	45344	19905	95	
346	0	45351	19903	95	
347	0	45354	19905	95	
348	0	45358	19905	95	
349	0	45353	19909	95	
350	0	45356	19906	95	
351	0	45358	19908	95	
352	0	45357	19905	95	
353	0	45360	19909	95	
354	0	45362	19908	95	
355	0	45367	19911	95	
356	0	45362	19912	95	
357	0	45362	19913	95	
358	0	45362	19912	95	
359	0	45366	19909	95	
360	0	45372	19916	95	
361	0	45371	19915	95	
362	0	45366	19913	95	
363	0	45370	19910	95	
364	0	45370	19913	95	
365	0	45377	19916	95	
366	0	45377	19916	95	
367	0	45382	19918	95	
368	0	45384	19920	95	
369	0	45385	19923	95	
370	0	45379	19920	95	
371	0	45388	19920	95	
372	0	45386	19921	95	
373	0	45394	19923	95	
374	0	45396	19922	95	
375	0	45389	19920	95	
376	0	45395	19923	95	
377	0	45399	19921	95	
378	0	45405	19922	95	
379	0	45402	19926	95	
380	0	45396	19927	95	
381	0	45406	19930	95	
382	0	45403	19926	95	
383	0	45401	19928	95	
384	0	45393	19925	95	
385	0	45381	19924	95	
386	0	45382	19911	95	
387	0	45371	19907	95	
388	0	45361	19904	95	
389	0	45352	19894	95	
390	0	45338	19887	95	
391	0	45340	19881	95	
392	0	45326	19873	95	
393	0	45317	19865	95	
394	0	45314	19863	95	
395	0	45315	19863	95	
396	0	45313	19860	95	
397	0	45311	19855	95	
398	0	45316	19859	95	
399	0	45310	19859	95	
400	0	45317	19861	95	
401	0	45314	19857	95	
402	0	45317	19857	95	
403	0	45308	19854	95	
404	0	45315	19858	95	
405	0	45320	19854	95	
406	0	45313	19860	95	
407	0	45326	19856	95	
408	0	45319	19858	95	
409	0	45321	19854	95	
410	0	45315	19860	95	
411	0	45320	19858	95	
412	0	45319	19858	95	
413	0	45315	19855	95	
414	0	45312	19856	95	
415	0	45314	19855	95	
416	0	45312	19854	95	
417	0	45313	19852	95	
418	0	45314	19857	95	
419	0	45306	19857	95	
420	0	45299	19856	95	
421	0	45306	19863	95	
422	0	45296	19868	95	
423	0	45296	19878	95	
424	0	45298	19886	95	
425	0	45299	19898	95	
426	0	45316	19914	95	
427	0	45327	19923	95	
428	0	45341	19942	95	
429	0	45349	19951	95	
430	0	45369	19965	95	
431	0	45388	19979	95	
432	0	45408	19992	95	
433	0	45432	20002	95	
434	0	45443	20008	95	
435	0	45448	20014	95	
436	0	45467	20017	95	
437	0	45470	20026	95	
438	0	45484	20032	95	
439	0	45497	20035	95	
440	0	45500	20035	95	
441	0	45500	20037	95	
442	0	45510	20038	95	
443	0	45519	20039	95	
444	0	45518	20043	95	
445	0	45514	20043	95	
446	0	45519	20045	95	
447	0	45528	20050	95	
448	0	45535	20054	95	
449	0	45539	20054	95	
450	0	45545	20061	95	
451	0	45551	20056	95	
452	0	45559	20060	95	
453	0	45558	20059	95	
454	0	45562	20061	95	
455	0	45567	20061	95	
456	0	45569	20065	95	
457	0	45571	20070	95	
458	0	45575	20073	95	
459	0	45578	20076	95	
460	0	45580	20072	95	
461	0	45574	20070	95	
462	0	45565	20068	95	
463	0	45561	20057	95	
464	0	45548	20058	95	
465	0	45547	20050	95	
466	0	45531	20041	95	
467	0	45519	20030	95	
468	0	45511	20024	95	
469	0	45499	20020	95	
470	0	45492	20014	95	
471	0	45498	20010	95	
472	0	45497	20008	95	
473	0	45493	20006	95	
474	0	45497	20007	95	
475	0	45506	20005	95	
476	0	45499	20002	95	
477	0	45505	20002	95	
478	0	45497	19997	95	
479	0	45500	20002	95	
480	0	45504	20002	95	
481	0	45509	19999	95	
482	0	45514	19996	95	
483	0	45507	19998	95	
484	0	45508	19987	95	
485	0	45500	19989	95	
486	0	45501	19990	95	
487	0	45492	19983	95	
488	0	45489	19983	95	
489	0	45489	19982	95	
490	0	45486	19978	95	
491	0	45475	19983	95	
492	0	45470	19983	95	
493	0	45478	19987	95	
494	0	45480	19987	95	
495	0	45493	19995	95	
496	0	45496	19997	95	
497	0	45507	19996	95	
498	0	45513	19996	95	
499	0	45508	19999	95	
500	0	45508	19996	95	
501	0	45514	19996	95	
502	0	45513	19995	95	
503	0	45513	19999	95	
504	0	45518	19995	95	
505	0	45519	19996	95	
506	0	45518	19996	95	
507	0	45528	20001	95	
508	0	45533	20003	95	
509	0	45526	20002	95	
510	0	45536	20001	95	
511	0	45534	20003	95	
512	0	45536	20000	95	
513	0	45537	20001	95	
514	0	45548	20000	95	
515	0	45537	19996	95	
516	0	45545	19991	95	
517	0	45535	19991	95	
518	0	45532	19987	95	
519	0	45532	19989	95	
520	0	45534	19992	95	
521	0	45541	19991	95	
522	0	45540	19993	95	
523	0	45535	19994	95	
524	0	45538	19993	95	
525	0	45542	19994	95	
526	0	45540	19991	95	
527	0	45542	19996	95	
528	0	45547	19993	95	
529	0	45544	19993	95	
530	0	45543	20000	95	
531	0	45547	19995	95	
532	0	45559	20002	95	
533	0	45561	20001	95	
534	0	45571	20004	95	
535	0	45571	20000	95	
536	0	45566	20001	95	
537	0	45563	19994	95	
538	0	45554	19994	95	
539	0	45554	19989	95	
540	0	45544	19987	95	
541	0	45542	19979	95	
542	0	45537	19974	95	
543	0	45531	19961	95	
544	0	45518	19954	95	
545	0	45506	19935	95	
546	0	45486	19923	95	
547	0	45467	19911	95	
548	0	45464	19907	95	
549	0	45461	19906	95	
550	0	45462	19905	95	
551	0	45464	19899	95	
552	0	45453	19896	95	
553	0	45454	19896	95	
554	0	45453	19888	95	
555	0	45457	19892	95	
556	0	45451	19890	95	
557	0	45457	19884	95	
558	0	45459	19883	95	
559	0	45456	19884	95	
560	0	45463	19877	95	
561	0	45462	19878	95	
562	0	45467	19874	95	
563	0	45476	19869	95	
564	0	45484	19864	95	
565	0	45492	19850	95	
566	0	45481	19830	95	
567	0	45468	19814	95	
568	0	45451	19803	95	
569	0	45430	19783	95	
570	0	45416	19771	95	
571	0	45399	19760	95	
572	0	45379	19747	95	
573	0	45370	19741	95	
574	0	45365	19730	95	
575	0	45350	19724	95	
576	0	45348	19720	95	
577	0	45344	19716	95	
578	0	45340	19711	95	
579	0	45348	19705	95	
580	0	45340	19700	95	
581	0	45337	19694	95	
582	0	45327	19692	95	
583	0	45307	19692	95	
584	0	45307	19690	95	
585	0	45301	19691	95	
586	0	45304	19699	95	
587	0	45302	19703	95	
588	0	45310	19706	95	
589	0	45311	19712	95	
590	0	45323	19722	95	
591	0	45325	19724	95	
592	0	45331	19726	95	
593	0	45333	19729	95	
594	0	45342	19736	95	
595	0	45344	19737	95	
596	0	45338	19742	95	
597	0	45340	19742	95	
598	0	45341	19745	95	
599	0	45344	19747	95	
600	0	45346	19749	95	
601	0	45351	19754	95	
602	0	45354	19757	95	
603	0	45366	19753	95	
604	0	45368	19761	95	
605	0	45366	19761	95	
606	0	45362	19762	95	
607	0	45367	19766	95	
608	0	45370	19766	95	
609	0	45369	19765	95	
610	0	45371	19763	95	
611	0	45380	19767	95	
612	0	45384	19769	95	
613	0	45380	19773	95	
614	0	45381	19773	95	
615	0	45380	19776	95	
616	0	45385	19774	95	
617	0	45372	19769	95	
618	0	45364	19762	95	
619	0	45347	19758	95	
620	0	45333	19755	95	
621	0	45328	19746	95	
622	0	45318	19748	95	
623	0	45330	19747	95	
624	0	45332	19747	95	
625	0	45330	19739	95	
626	0	45332	19741	95	
627	0	45330	19734	95	
628	0	45321	19730	95	
629	0	45317	19728	95	
630	0	45318	19729	95	
631	0	45318	19729	95	
632	0	45324	19729	95	
633	0	45315	19732	95	
634	0	45319	19729	95	
635	0	45314	19730	95	
636	0	45317	19727	95	
637	0	45312	19730	95	
638	0	45311	19733	95	
639	0	45314	19732	95	
640	0	45320	19740	95	
641	0	45323	19745	95	
642	0	45321	19743	95	
643	0	45326	19743	95	
644	0	45326	19749	95	
645	0	45325	19747	95	
646	0	45319	19745	95	
647	0	45315	19747	95	
648	0	45323	19747	95	
649	0	45322	19752	95	
650	0	45331	19756	95	
651	0	45331	19759	95	
652	0	45337	19763	95	
653	0	45329	19756	95	
654	0	45342	19755	95	
655	0	45330	19762	95	
656	0	45333	19766	95	
657	0	45336	19771	95	
658	0	45354	19776	95	
659	0	45355	19785	95	
660	0	45359	19788	95	
661	0	45360	19790	95	
662	0	45377	19799	95	
663	0	45381	19793	95	
664	0	45386	19794	95	
665	0	45373	19793	95	
666	0	45377	19796	95	
667	0	45382	19794	95	
668	0	45381	19800	95	
669	0	45388	19800	95	
670	0	45382	19807	95	
671	0	45389	19805	95	
672	0	45398	19810	95	
673	0	45402	19814	95	
674	0	45400	19815	95	
675	0	45399	19815	95	
676	0	45403	19818	95	
677	0	45401	19816	95	
678	0	45403	19822	95	
679	0	45411	19822	95	
680	0	45411	19827	95	
681	0	45412	19831	95	
682	0	45419	19830	95	
683	0	45427	19834	95	
684	0	45418	19837	95	
685	0	45418	19838	95	
686	0	45433	19837	95	
687	0	45436	19842	95	
688	0	45435	19844	95	
689	0	45447	19843	95	
690	0	45444	19848	95	
691	0	45452	19851	95	
692	0	45444	19847	95	
693	0	45444	19848	95	
694	0	45440	19846	95	
695	0	45434	19846	95	
696	0	45427	19847	95	
697	0	45430	19847	95	
698	0	45424	19847	95	
699	0	45417	19847	95	
700	0	45417	19846	95	
701	0	45407	19840	95	
702	0	45416	19838	95	
703	0	45406	19832	95	
704	0	45401	19829	95	
705	0	45397	19825	95	
706	0	45396	19825	95	
707	0	45391	19824	95	
708	0	45401	19822	95	
709	0	45394	19825	95	
710	0	45395	19824	95	
711	0	45395	19822	95	
712	0	45403	19823	95	
713	0	45406	19825	95	
714	0	45403	19827	95	
715	0	45405	19823	95	
716	0	45410	19823	95	
717	0	45405	19826	95	
718	0	45405	19824	95	
719	0	45410	19828	95	
720	0	45406	19829	95	
721	0	45405	19827	95	
722	0	45405	19827	95	
723	0	45408	19825	95	
724	0	45405	19824	95	
725	0	45404	19821	95	
726	0	45405	19826	95	
727	0	45410	19828	95	
728	0	45410	19825	95	
729	0	45411	19828	95	
730	0	45414	19829	95	
731	0	45409	19823	95	
732	0	45414	19825	95	
733	0	45412	19825	95	
734	0	45412	19826	95	
735	0	45416	19827	95	
736	0	45423	19824	95	
737	0	45428	19825	95	
738	0	45420	19820	95	
739	0	45418	19822	95	
740	0	45415	19826	95	
741	0	45420	19824	95	
742	0	45426	19826	95	
743	0	45422	19825	95	
744	0	45425	19832	95	
745	0	45429	19831	95	
746	0	45440	19832	95	
747	0	45439	19833	95	
748	0	45440	19836	95	
749	0	45443	19834	95	
750	0	45447	19831	95	
751	0	45453	19830	95	
752	0	45442	19831	95	
753	0	45447	19828	95	
754	0	45447	19822	95	
755	0	45442	19820	95	
756	0	45440	19820	95	
757	0	45440	19819	95	
758	0	45449	19822	95	
759	0	45451	19819	95	
760	0	45447	19816	95	
761	0	45453	19813	95	
762	0	45451	19813	95	
763	0	45455	19810	95	
764	0	45453	19812	95	
765	0	45446	19804	95	
766	0	45440	19803	95	
767	0	45441	19801	95	
768	0	45437	19799	95	
769	0	45434	19804	95	
770	0	45443	19801	95	
771	0	45446	19802	95	
772	0	45439	19800	95	
773	0	45449	19798	95	
774	0	45446	19798	95	
775	0	45445	19793	95	
776	0	45436	19791	95	
777	0	45431	19793	95	
778	0	45422	19791	95	
779	0	45422	19791	95	
780	0	45420	19789	95	
781	0	45411	19785	95	
782	0	45407	19777	95	
783	0	45396	19774	95	
784	0	45390	19767	95	
785	0	45381	19759	95	
786	0	45374	19752	95	
787	0	45367	19750	95	
788	0	45359	19749	95	
789	0	45365	19745	95	
790	0	45361	19743	95	
791	0	45349	19745	95	
792	0	45352	19745	95	
793	0	45351	19747	95	
794	0	45350	19748	95	
795	0	45354	19751	95	
796	0	45347	19750	95	
797	0	45352	19757	95	
798	0	45353	19763	95	
799	0	45358	19765	95	
800	0	45363	19772	95	
801	0	45354	19773	95	
802	0	45359	19779	95	
803	0	45355	19787	95	
804	0	45362	19793	95	
805	0	45372	19800	95	
806	0	45405	19813	95	
807	0	45402	19807	95	
808	0	45390	19806	95	
809	0	45395	19805	95	
810	0	45406	19810	95	
811	0	45405	19804	95	
812	0	45399	19805	95	
813	0	45409	19806	95	
814	0	45415	19806	95	
815	0	45413	19803	95	
816	0	45415	19800	95	
817	0	45412	19797	95	
818	0	45419	19799	95	
819	0	45413	19796	95	
820	0	45409	19791	95	
821	0	45410	19794	95	
822	0	45409	19794	95	
823	0	45410	19789	95	
824	0	45414	19789	95	
825	0	45427	19790	95	
826	0	45424	19785	95	
827	0	45417	19780	95	
828	0	45422	19780	95	
829	0	45411	19774	95	
830	0	45412	19772	95	
831	0	45432	19772	95	
832	0	45428	19763	95	
833	0	45425	19760	95	
834	0	45437	19756	95	
835	0	45431	19747	95	
836	0	45431	19745	95	
837	0	45427	19736	95	
838	0	45414	19731	95	
839	0	45410	19719	95	
840	0	45409	19714	95	
841	0	45395	19706	95	
842	0	45397	19700	95	
843	0	45392	19691	95	
844	0	45386	19692	95	
845	0	45390	19685	95	
846	0	45392	19679	95	
847	0	45394	19671	95	
848	0	45391	19660	95	
849	0	45379	19649	95	
850	0	45385	19640	95	
851	0	45368	19625	95	
852	0	45362	19616	95	
853	0	45352	19605	95	
854	0	45348	19591	95	
855	0	45338	19585	95	
856	0	45330	19572	95	
857	0	45318	19568	95	
858	0	45306	19555	95	
859	0	45296	19546	95	
860	0	45263	19537	95	
861	0	45247	19529	95	
862	0	45234	19522	95	
863	0	45223	19512	95	
864	0	45212	19507	95	
865	0	45196	19499	95	
866	0	45189	19490	95	
867	0	45178	19481	95	
868	0	45165	19475	95	
869	0	45144	19467	95	
870	0	45128	19466	95	
871	0	45122	19467	95	
872	0	45126	19476	95	
873	0	45109	19479	95	
874	0	45106	19487	95	
875	0	45103	19500	95	
876	0	45118	19512	95	
877	0	45136	19516	95	
878	0	45146	19525	95	
879	0	45143	19526	95	
880	0	45145	19534	95	
881	0	45147	19539	95	
882	0	45143	19544	95	
883	0	45145	19550	95	
884	0	45143	19555	95	
885	0	45148	19564	99	
886	0	45151	19570	99	
887	0	45149	19577	99	
888	0	45147	19587	99	
889	0	45156	19597	99	
890	0	45154	19604	99	
891	0	45168	19614	99	
892	0	45178	19624	99	
893	0	45190	19635	99	
894	0	45202	19644	99	
895	0	45204	19652	99	
896	0	45218	19660	99	
897	0	45217	19663	99	
898	0	45226	19671	99	
899	0	45238	19674	99	
900	0	45245	19681	99	
901	0	45252	19688	99	
902	0	45257	19694	99	
903	0	45262	19702	99	
904	0	45263	19707	99	
905	0	45266	19710	99	
906	0	45280	19721	99	
907	0	45293	19730	99	
908	0	45302	19733	99	
909	0	45304	19735	99	
910	0	45308	19739	99	
911	0	45306	19744	99	
912	0	45310	19753	99	
913	0	45310	19762	99	
914	0	45326	19769	99	
915	0	45338	19771	99	
916	0	45347	19779	99	
917	0	45347	19780	99	
918	0	45355	19781	99	
919	0	45356	19783	99	
920	0	45350	19782	99	
921	0	45354	19785	99	
922	0	45348	19791	99	
923	0	45356	19793	99	
924	0	45350	19803	99	
925	0	45353	19805	99	
926	0	45362	19812	99	
927	0	45360	19821	99	
928	0	45376	19831	99	
929	0	45378	19841	99	
930	0	45396	19848	99	
931	0	45401	19860	99	
932	0	45411	19864	99	
933	0	45420	19869	99	
934	0	45428	19876	99	
935	0	45433	19874	99	
936	0	45432	19886	99	
937	0	45445	19890	99	
938	0	45457	19898	99	
939	0	45465	19897	99	
940	0	45461	19900	99	
941	0	45465	19902	99	
942	0	45460	19902	99	
943	0	45446	19897	99	
944	0	45436	19899	99	
945	0	45428	19893	99	
946	0	45427	19891	99	
947	0	45432	19894	99	
948	0	45429	19886	99	
949	0	45433	19883	99	
950	0	45429	19881	99	
951	0	45425	19878	99	
952	0	45426	19879	99	
953	0	45419	19876	99	
954	0	45418	19870	99	
955	0	45407	19875	99	
956	0	45419	19874	99	
957	0	45422	19877	99	
958	0	45420	19878	99	
959	0	45426	19883	99	
960	0	45435	19885	99	
961	0	45430	19885	99	
962	0	45428	19884	99	
963	0	45425	19884	99	
964	0	45430	19882	99	
965	0	45426	19886	99	
966	0	45431	19890	99	
967	0	45426	19889	99	
968	0	45425	19892	99	
969	0	45427	19891	99	
970	0	45421	19890	99	
971	0	45417	19894	99	
972	0	45411	19898	99	
973	0	45412	19905	99	
974	0	45414	19909	99	
975	0	45419	19922	99	
976	0	45439	19925	99	
977	0	45441	19929	99	
978	0	45449	19938	99	
979	0	45443	19944	99	
980	0	45448	19954	99	
981	0	45446	19964	99	
982	0	45454	19969	99	
983	0	45466	19980	99	
984	0	45476	19988	99	
985	0	45491	20000	99	
986	0	45490	20013	99	
987	0	45505	20023	99	
988	0	45521	20033	99	
989	0	45539	20041	99	
990	0	45560	20048	99	
991	0	45569	20054	99	
992	0	45574	20058	99	
993	0	45591	20068	99	
994	0	45594	20069	99	
995	0	45594	20070	99	
996	0	45602	20076	99	
997	0	45604	20079	99	
998	0	45602	20081	99	
999	0	45614	20083	99	
1000	0	45614	20086	99	
1001	0	45624	20087	99	
1002	0	45616	20090	99	
1003	0	45615	20098	99	
1004	0	45615	20088	99	
1005	0	45620	20097	99	
1006	0	45629	20108	99	
1007	0	45637	20115	99	
1008	0	45656	20118	99	
1009	0	45662	20127	99	
1010	0	45674	20130	99	
1011	0	45682	20129	99	
1012	0	45682	20130	99	
1013	0	45684	20133	99	
1014	0	45684	20133	99	
1015	0	45693	20139	99	
1016	0	45687	20142	99	
1017	0	45689	20142	99	
1018	0	45694	20147	99	
1019	0	45704	20148	99	
1020	0	45713	20146	99	
1021	0	45708	20147	99	
1022	0	45701	20144	99	
1023	0	45688	20137	99	
1024	0	45678	20136	99	
1025	0	45675	20131	99	
1026	0	45668	20128	99	
1027	0	45666	20119	99	
1028	0	45663	20116	99	
1029	0	45653	20104	99	
1030	0	45648	20101	99	
1031	0	45655	20100	99	
1032	0	45653	20092	99	
1033	0	45655	20079	99	
1034	0	45660	20077	99	
1035	0	45643	20070	99	
1036	0	45639	20066	99	
1037	0	45637	20058	99	
1038	0	45635	20050	99	
1039	0	45625	20040	99	
1040	0	45607	20032	99	
1041	0	45597	20025	99	
1042	0	45594	20022	99	
1043	0	45587	20014	99	
1044	0	45585	20016	99	
1045	0	45584	20014	99	
1046	0	45585	20010	99	
1047	0	45577	20013	99	
1048	0	45583	20007	99	
1049	0	45579	20009	99	
1050	0	45580	20006	99	
1051	0	45582	20004	99	
1052	0	45577	19998	99	
1053	0	45569	20002	99	
1054	0	45562	19995	99	
1055	0	45554	19994	99	
1056	0	45544	19990	99	
1057	0	45545	19993	99	
1058	0	45540	19997	99	
1059	0	45540	19996	99	
1060	0	45532	20001	99	
1061	0	45541	20006	99	
1062	0	45547	20011	99	
1063	0	45556	20027	99	
1064	0	45573	20025	99	
1065	0	45583	20034	99	
1066	0	45594	20038	99	
1067	0	45602	20041	99	
1068	0	45612	20045	99	
1069	0	45607	20047	99	
1070	0	45612	20050	99	
1071	0	45621	20053	99	
1072	0	45633	20054	99	
1073	0	45622	20052	99	
1074	0	45626	20048	99	
1075	0	45621	20046	99	
1076	0	45623	20050	99	
1077	0	45614	20059	99	
1078	0	45618	20056	99	
1079	0	45624	20061	99	
1080	0	45625	20061	99	
1081	0	45633	20062	99	
1082	0	45640	20068	99	
1083	0	45646	20071	99	
1084	0	45646	20070	99	
1085	0	45650	20069	99	
1086	0	45645	20067	99	
1087	0	45647	20072	99	
1088	0	45648	20071	99	
1089	0	45657	20075	99	
1090	0	45656	20074	99	
1091	0	45656	20076	99	
1092	0	45665	20079	99	
1093	0	45664	20080	99	
1094	0	45667	20085	99	
1095	0	45668	20083	99	
1096	0	45676	20083	99	
1097	0	45676	20088	99	
1098	0	45689	20087	99	
1099	0	45676	20084	99	
1100	0	45669	20077	99	
1101	0	45658	20076	99	
1102	0	45652	20066	99	
1103	0	45639	20060	99	
1104	0	45627	20060	99	
1105	0	45613	20051	99	
1106	0	45601	20042	99	
1107	0	45593	20040	99	
1108	0	45601	20034	99	
1109	0	45592	20028	99	
1110	0	45585	20025	99	
1111	0	45588	20022	99	
1112	0	45583	20021	99	
1113	0	45572	20022	99	
1114	0	45573	20023	99	
1115	0	45576	20025	99	
1116	0	45581	20023	99	
1117	0	45584	20027	99	
1118	0	45590	20026	99	
1119	0	45589	20020	99	
1120	0	45584	20022	99	
1121	0	45586	20023	99	
1122	0	45582	20024	99	
1123	0	45589	20022	99	
1124	0	45584	20021	99	
1125	0	45580	20021	99	
1126	0	45589	20024	99	
1127	0	45586	20021	99	
1128	0	45593	20022	99	
1129	0	45592	20016	99	
1130	0	45591	20017	99	
1131	0	45584	20013	99	
1132	0	45583	20010	99	
1133	0	45577	20008	99	
1134	0	45574	20006	99	
1135	0	45569	20003	99	
1136	0	45574	20004	99	
1137	0	45570	20006	99	
1138	0	45582	20002	99	
1139	0	45579	20008	99	
1140	0	45578	20008	99	
1141	0	45577	20005	99	
1142	0	45584	20007	99	
1143	0	45575	20006	99	
1144	0	45579	20009	99	
1145	0	45580	20006	99	
1146	0	45573	20010	99	
1147	0	45576	20015	99	
1148	0	45572	20018	99	
1149	0	45576	20023	99	
1150	0	45588	20030	99	
1151	0	45603	20035	99	
1152	0	45605	20038	99	
1153	0	45607	20039	99	
1154	0	45616	20038	99	
1155	0	45609	20039	99	
1156	0	45607	20040	99	
1157	0	45606	20040	99	
1158	0	45616	20044	99	
1159	0	45611	20044	99	
1160	0	45616	20043	99	
1161	0	45618	20050	99	
1162	0	45623	20051	99	
1163	0	45629	20058	99	
1164	0	45630	20059	99	
1165	0	45628	20059	99	
1166	0	45630	20062	99	
1167	0	45640	20065	99	
1168	0	45634	20066	99	
1169	0	45636	20067	99	
1170	0	45634	20071	99	
1171	0	45634	20076	99	
1172	0	45624	20084	99	
1173	0	45619	20085	99	
1174	0	45614	20087	99	
1175	0	45610	20090	99	
1176	0	45613	20096	99	
1177	0	45612	20100	99	
1178	0	45605	20106	99	
1179	0	45605	20105	99	
1180	0	45603	20106	99	
1181	0	45607	20102	99	
1182	0	45609	20107	99	
1183	0	45610	20108	99	
1184	0	45619	20109	99	
1185	0	45622	20114	99	
1186	0	45636	20113	99	
1187	0	45639	20111	99	
1188	0	45641	20118	99	
1189	0	45652	20114	99	
1190	0	45646	20117	99	
1191	0	45651	20114	99	
1192	0	45648	20115	99	
1193	0	45654	20120	99	
1194	0	45652	20114	99	
1195	0	45650	20115	99	
1196	0	45650	20119	99	
1197	0	45657	20120	99	
1198	0	45655	20121	99	
1199	0	45662	20121	99	
1200	0	45661	20122	99	
1201	0	45669	20120	99	
1202	0	45671	20119	99	
1203	0	45681	20118	99	
1204	0	45695	20114	99	
1205	0	45699	20107	99	
1206	0	45697	20098	99	
1207	0	45690	20087	99	
1208	0	45678	20080	99	
1209	0	45664	20062	99	
1210	0	45647	20058	99	
1211	0	45639	20046	99	
1212	0	45630	20042	99	
1213	0	45620	20039	99	
1214	0	45623	20035	99	
1215	0	45616	20040	99	
1216	0	45618	20039	99	
1217	0	45623	20036	99	
1218	0	45623	20032	99	
1219	0	45625	20031	99	
1220	0	45617	20033	99	
1221	0	45612	20031	99	
1222	0	45615	20028	99	
1223	0	45602	20032	99	
1224	0	45606	20034	99	
1225	0	45612	20031	99	
1226	0	45614	20034	99	
1227	0	45602	20031	99	
1228	0	45602	20029	99	
1229	0	45602	20033	99	
1230	0	45595	20037	99	
1231	0	45602	20039	99	
1232	0	45603	20043	99	
1233	0	45614	20046	99	
1234	0	45625	20056	99	
1235	0	45638	20058	99	
1236	0	45631	20053	99	
1237	0	45632	20058	99	
1238	0	45638	20053	99	
1239	0	45639	20052	99	
1240	0	45634	20057	99	
1241	0	45636	20056	99	
1242	0	45643	20059	99	
1243	0	45645	20063	99	
1244	0	45645	20065	99	
1245	0	45643	20062	99	
1246	0	45635	20057	99	
1247	0	45631	20049	99	
1248	0	45617	20045	99	
1249	0	45610	20035	99	
1250	0	45592	20025	99	
1251	0	45582	20019	99	
1252	0	45578	20012	99	
1253	0	45562	20007	99	
1254	0	45567	20004	99	
1255	0	45569	19995	99	
1256	0	45568	20000	99	
1257	0	45564	19988	99	
1258	0	45563	19990	99	
1259	0	45561	19988	99	
1260	0	45558	19988	99	
1261	0	45551	19984	99	
1262	0	45562	19984	99	
1263	0	45553	19980	99	
1264	0	45563	19977	99	
1265	0	45553	19974	99	
1266	0	45550	19973	99	
1267	0	45547	19969	99	
1268	0	45540	19970	99	
1269	0	45536	19973	99	
1270	0	45536	19971	99	
1271	0	45543	19970	99	
1272	0	45544	19977	99	
1273	0	45544	19971	99	
1274	0	45546	19971	99	
1275	0	45539	19966	99	
1276	0	45535	19966	99	
1277	0	45536	19965	99	
1278	0	45538	19967	99	
1279	0	45539	19964	99	
1280	0	45542	19966	99	
1281	0	45534	19963	99	
1282	0	45538	19965	99	
1283	0	45530	19962	99	
1284	0	45529	19965	99	
1285	0	45538	19970	99	
1286	0	45538	19972	99	
1287	0	45538	19981	99	
1288	0	45547	19983	99	
1289	0	45555	19991	99	
1290	0	45557	19997	99	
1291	0	45560	20004	99	
1292	0	45558	20008	99	
1293	0	45561	20014	99	
1294	0	45579	20023	99	
1295	0	45592	20028	99	
1296	0	45595	20035	99	
1297	0	45598	20035	99	
1298	0	45610	20039	99	
1299	0	45610	20040	99	
1300	0	45605	20042	99	
1301	0	45610	20046	99	
1302	0	45612	20047	99	
1303	0	45618	20054	99	
1304	0	45620	20055	99	
1305	0	45622	20056	99	
1306	0	45622	20063	99	
1307	0	45630	20066	99	
1308	0	45643	20075	99	
1309	0	45638	20076	99	
1310	0	45655	20076	99	
1311	0	45652	20084	99	
1312	0	45661	20085	99	
1313	0	45658	20088	99	
1314	0	45665	20093	99	
1315	0	45665	20092	99	
1316	0	45663	20099	99	
1317	0	45675	20102	99	
1318	0	45678	20108	99	
1319	0	45676	20108	99	
1320	0	45678	20106	99	
1321	0	45667	20104	99	
1322	0	45657	20098	99	
1323	0	45660	20094	99	
1324	0	45659	20090	99	
1325	0	45645	20088	99	
1326	0	45650	20076	99	
1327	0	45635	20070	99	
1328	0	45628	20063	99	
1329	0	45619	20056	99	
1330	0	45614	20053	99	
1331	0	45607	20050	99	
1332	0	45611	20047	99	
1333	0	45600	20050	99	
1334	0	45613	20047	99	
1335	0	45613	20046	99	
1336	0	45609	20050	99	
1337	0	45613	20048	99	
1338	0	45608	20041	99	
1339	0	45598	20039	99	
1340	0	45595	20036	99	
1341	0	45595	20036	99	
1342	0	45594	20039	99	
1343	0	45598	20041	99	
1344	0	45611	20042	99	
1345	0	45612	20039	99	
1346	0	45613	20043	99	
1347	0	45607	20042	99	
1348	0	45608	20039	99	
1349	0	45601	20036	99	
1350	0	45606	20034	99	
1351	0	45603	20032	99	
1352	0	45600	20032	99	
1353	0	45590	20033	99	
1354	0	45598	20034	99	
1355	0	45599	20034	99	
1356	0	45596	20038	99	
1357	0	45606	20041	99	
1358	0	45607	20041	99	
1359	0	45612	20043	99	
1360	0	45611	20047	99	
1361	0	45612	20048	99	
1362	0	45609	20046	99	
1363	0	45620	20050	99	
1364	0	45614	20047	99	
1365	0	45617	20048	99	
1366	0	45617	20051	99	
1367	0	45620	20047	99	
1368	0	45627	20050	99	
1369	0	45630	20054	99	
1370	0	45633	20058	99	
1371	0	45641	20060	99	
1372	0	45636	20057	99	
1373	0	45642	20058	99	
1374	0	45644	20063	99	
1375	0	45645	20060	99	
1376	0	45648	20067	99	
1377	0	45653	20064	99	
1378	0	45654	20068	99	
1379	0	45658	20065	99	
1380	0	45648	20067	99	
1381	0	45654	20068	99	
1382	0	45653	20069	99	
1383	0	45651	20069	99	
1384	0	45653	20071	99	
1385	0	45656	20071	99	
1386	0	45658	20072	99	
1387	0	45666	20078	99	
1388	0	45665	20080	99	
1389	0	45677	20083	99	
1390	0	45679	20079	99	
1391	0	45679	20082	99	
1392	0	45678	20081	99	
1393	0	45679	20083	99	
1394	0	45682	20084	99	
1395	0	45686	20082	99	
1396	0	45689	20084	99	
1397	0	45688	20084	99	
1398	0	45690	20085	99	
1399	0	45688	20083	99	
1400	0	45682	20081	99	
1401	0	45674	20077	99	
1402	0	45662	20073	99	
1403	0	45653	20069	99	
1404	0	45643	20060	99	
1405	0	45637	20050	99	
1406	0	45617	20045	99	
1407	0	45613	20035	99	
1408	0	45605	20032	99	
1409	0	45600	20025	99	
1410	0	45597	20017	99	
1411	0	45597	20015	99	
1412	0	45592	20007	99	
1413	0	45587	20006	99	
1414	0	45584	20003	99	
1415	0	45585	19993	99	
1416	0	45575	19995	99	
1417	0	45580	19988	99	
1418	0	45576	19989	99	
1419	0	45563	19986	99	
1420	0	45562	19983	99	
1421	0	45557	19982	99	
1422	0	45560	19979	99	
1423	0	45558	19978	99	
1424	0	45555	19978	99	
1425	0	45546	19978	99	
1426	0	45550	19979	99	
1427	0	45556	19983	99	
1428	0	45559	19980	99	
1429	0	45554	19979	99	
1430	0	45555	19978	99	
1431	0	45557	19977	99	
1432	0	45553	19975	99	
1433	0	45545	19972	99	
1434	0	45549	19971	99	
1435	0	45543	19969	99	
1436	0	45549	19971	99	
1437	0	45548	19971	99	
1438	0	45551	19973	99	
1439	0	45553	19974	99	
1440	0	45557	19974	99	
1441	0	45561	19978	99	
1442	0	45558	19978	99	
1443	0	45558	19976	99	
1444	0	45564	19978	99	
1445	0	45565	19984	99	
1446	0	45567	19983	99	
1447	0	45561	19986	99	
1448	0	45572	19986	99	
1449	0	45564	19989	99	
1450	0	45568	19992	99	
1451	0	45570	19995	99	
1452	0	45574	20000	99	
1453	0	45581	20000	99	
1454	0	45582	20000	99	
1455	0	45592	20010	99	
1456	0	45587	20006	99	
1457	0	45595	20005	99	
1458	0	45593	20008	99	
1459	0	45593	20011	99	
1460	0	45593	20012	99	
1461	0	45604	20015	99	
1462	0	45600	20018	99	
1463	0	45604	20018	99	
1464	0	45609	20014	99	
1465	0	45604	20019	99	
1466	0	45606	20019	99	
1467	0	45606	20022	99	
1468	0	45607	20020	99	
1469	0	45612	20026	99	
1470	0	45610	20026	99	
1471	0	45620	20026	99	
1472	0	45623	20029	99	
1473	0	45628	20030	99	
1474	0	45622	20032	99	
1475	0	45622	20033	99	
1476	0	45623	20031	99	
1477	0	45627	20035	99	
1478	0	45626	20037	99	
1479	0	45632	20040	99	
1480	0	45632	20044	99	
1481	0	45636	20040	99	
1482	0	45634	20047	99	
1483	0	45647	20046	99	
1484	0	45642	20050	99	
1485	0	45638	20049	96	
1486	0	45632	20041	96	
1487	0	45621	20039	96	
1488	0	45603	20030	96	
1489	0	45602	20028	96	
1490	0	45591	20023	96	
1491	0	45578	20013	96	
1492	0	45572	20011	96	
1493	0	45572	20001	96	
1494	0	45562	20000	96	
1495	0	45558	19999	96	
1496	0	45560	19999	96	
1497	0	45568	19998	96	
1498	0	45556	19987	96	
1499	0	45559	19990	96	
1500	0	45556	19990	96	
1501	0	45551	19991	96	
1502	0	45550	19991	96	
1503	0	45548	19991	96	
1504	0	45547	19990	96	
1505	0	45553	19993	96	
1506	0	45557	19989	96	
1507	0	45554	19991	96	
1508	0	45558	19995	96	
1509	0	45551	19989	96	
1510	0	45551	19989	96	
1511	0	45548	19990	96	
1512	0	45549	19988	96	
1513	0	45548	19983	96	
1514	0	45548	19984	96	
1515	0	45540	19982	96	
1516	0	45542	19981	96	
1517	0	45543	19981	96	
1518	0	45541	19977	96	
1519	0	45535	19980	96	
1520	0	45537	19978	96	
1521	0	45541	19979	96	
1522	0	45543	19983	96	
1523	0	45537	19981	96	
1524	0	45538	19983	96	
1525	0	45538	19979	96	
1526	0	45541	19978	96	
1527	0	45543	19982	96	
1528	0	45545	19983	96	
1529	0	45543	19984	96	
1530	0	45551	19987	96	
1531	0	45554	19991	96	
1532	0	45552	19988	96	
1533	0	45550	19995	96	
1534	0	45545	19987	96	
1535	0	45548	19989	96	
1536	0	45544	19989	96	
1537	0	45542	19995	96	
1538	0	45546	19996	96	
1539	0	45555	20002	96	
1540	0	45562	20003	96	
1541	0	45562	20008	96	
1542	0	45568	20007	96	
1543	0	45562	20008	96	
1544	0	45569	20010	96	
1545	0	45565	20007	96	
1546	0	45568	20010	96	
1547	0	45571	20012	96	
1548	0	45575	20015	96	
1549	0	45572	20018	96	
1550	0	45572	20016	96	
1551	0	45581	20022	96	
1552	0	45582	20017	96	
1553	0	45582	20017	96	
1554	0	45576	20017	96	
1555	0	45581	20023	96	
1556	0	45584	20025	96	
1557	0	45583	20024	96	
1558	0	45580	20030	96	
1559	0	45579	20031	96	
1560	0	45588	20032	96	
1561	0	45586	20037	96	
1562	0	45596	20037	96	
1563	0	45604	20044	96	
1564	0	45602	20039	96	
1565	0	45604	20041	96	
1566	0	45603	20042	96	
1567	0	45596	20035	96	
1568	0	45590	20034	96	
1569	0	45587	20034	96	
1570	0	45579	20032	96	
1571	0	45573	20028	96	
1572	0	45563	20021	96	
1573	0	45554	20013	96	
1574	0	45541	20004	96	
1575	0	45529	19998	96	
1576	0	45525	19995	96	
1577	0	45523	19992	96	
1578	0	45522	19987	96	
1579	0	45519	19989	96	
1580	0	45514	19988	96	
1581	0	45513	19986	96	
1582	0	45507	19985	96	
1583	0	45504	19987	96	
1584	0	45512	19986	96	
1585	0	45508	19989	96	
1586	0	45514	19991	96	
1587	0	45516	19989	96	
1588	0	45520	19988	96	
1589	0	45525	19989	96	
1590	0	45520	19988	96	
1591	0	45517	19991	96	
1592	0	45516	19987	96	
1593	0	45507	19993	96	
1594	0	45510	19988	96	
1595	0	45514	19992	96	
1596	0	45511	19992	96	
1597	0	45522	19997	96	
1598	0	45521	19990	96	
1599	0	45520	19994	96	
1600	0	45518	19992	96	
1601	0	45519	19986	96	
1602	0	45509	19980	96	
1603	0	45515	19982	96	
1604	0	45505	19983	96	
1605	0	45509	19982	96	
1606	0	45514	19986	96	
1607	0	45514	19987	96	
1608	0	45523	19990	96	
1609	0	45521	19996	96	
1610	0	45530	19996	96	
1611	0	45534	19994	96	
1612	0	45537	19995	96	
1613	0	45530	19995	96	
1614	0	45534	20000	96	
1615	0	45537	20000	96	
1616	0	45536	20004	96	
1617	0	45527	20000	96	
1618	0	45536	20006	96	
1619	0	45534	20007	96	
1620	0	45545	20009	96	
1621	0	45547	20009	96	
1622	0	45552	20011	96	
1623	0	45543	20011	96	
1624	0	45544	20011	96	
1625	0	45540	20014	96	
1626	0	45544	20015	96	
1627	0	45540	20016	96	
1628	0	45543	20019	96	
1629	0	45547	20021	96	
1630	0	45557	20018	96	
1631	0	45554	20023	96	
1632	0	45558	20024	96	
1633	0	45569	20030	96	
1634	0	45571	20032	96	
1635	0	45562	20033	96	
1636	0	45564	20033	96	
1637	0	45566	20033	96	
1638	0	45568	20036	96	
1639	0	45562	20036	96	
1640	0	45565	20038	96	
1641	0	45574	20044	96	
1642	0	45578	20046	96	
1643	0	45581	20055	96	
1644	0	45591	20053	96	
1645	0	45589	20055	96	
1646	0	45593	20060	96	
1647	0	45587	20058	96	
1648	0	45592	20061	96	
1649	0	45586	20060	96	
1650	0	45581	20056	96	
1651	0	45575	20053	96	
1652	0	45564	20051	96	
1653	0	45549	20044	96	
1654	0	45541	20040	96	
1655	0	45540	20040	96	
1656	0	45534	20033	96	
1657	0	45529	20030	96	
1658	0	45532	20027	96	
1659	0	45529	20026	96	
1660	0	45525	20024	96	
1661	0	45517	20020	96	
1662	0	45518	20018	96	
1663	0	45516	20018	96	
1664	0	45514	20016	96	
1665	0	45514	20013	96	
1666	0	45509	20016	96	
1667	0	45505	20017	96	
1668	0	45513	20022	96	
1669	0	45524	20024	96	
1670	0	45528	20029	96	
1671	0	45529	20026	96	
1672	0	45528	20021	96	
1673	0	45531	20026	96	
1674	0	45519	20024	96	
1675	0	45526	20023	96	
1676	0	45526	20024	96	
1677	0	45528	20021	96	
1678	0	45528	20020	96	
1679	0	45524	20019	96	
1680	0	45528	20018	96	
1681	0	45530	20016	96	
1682	0	45520	20010	96	
1683	0	45515	20012	96	
1684	0	45508	20010	96	
1685	0	45510	20009	96	
1686	0	45516	20008	96	
1687	0	45512	20010	96	
1688	0	45517	20011	96	
1689	0	45522	20014	96	
1690	0	45523	20016	96	
1691	0	45523	20015	96	
1692	0	45525	20015	96	
1693	0	45525	20012	96	
1694	0	45521	20011	96	
1695	0	45521	20014	96	
1696	0	45523	20018	96	
1697	0	45529	20019	96	
1698	0	45535	20025	96	
1699	0	45539	20026	96	
1700	0	45543	20028	96	
1701	0	45545	20026	96	
1702	0	45542	20029	96	
1703	0	45540	20028	96	
1704	0	45545	20031	96	
1705	0	45551	20031	96	
1706	0	45552	20035	96	
1707	0	45550	20034	96	
1708	0	45550	20039	96	
1709	0	45549	20029	96	
1710	0	45547	20031	96	
1711	0	45552	20038	96	
1712	0	45550	20037	96	
1713	0	45559	20037	96	
1714	0	45565	20038	96	
1715	0	45562	20040	96	
1716	0	45563	20040	96	
1717	0	45568	20043	96	
1718	0	45571	20040	96	
1719	0	45577	20045	96	
1720	0	45572	20041	96	
1721	0	45568	20045	96	
1722	0	45570	20049	96	
1723	0	45574	20048	96	
1724	0	45583	20047	96	
1725	0	45581	20055	96	
1726	0	45584	20056	96	
1727	0	45590	20057	96	
1728	0	45598	20059	96	
1729	0	45593	20056	96	
1730	0	45588	20055	96	
1731	0	45585	20053	96	
1732	0	45567	20049	96	
1733	0	45556	20043	96	
1734	0	45550	20035	96	
1735	0	45534	20028	96	
1736	0	45529	20017	96	
1737	0	45516	20014	96	
1738	0	45512	20008	96	
1739	0	45513	20003	96	
1740	0	45516	19998	96	
1741	0	45510	19993	96	
1742	0	45495	19993	96	
1743	0	45492	19990	96	
1744	0	45493	19990	96	
1745	0	45491	19987	96	
1746	0	45497	19986	96	
1747	0	45497	19986	96	
1748	0	45497	19988	96	
1749	0	45497	19988	96	
1750	0	45503	19980	96	
1751	0	45499	19983	96	
1752	0	45494	19980	96	
1753	0	45492	19976	96	
1754	0	45482	19978	96	
1755	0	45481	19974	96	
1756	0	45483	19976	96	
1757	0	45485	19977	96	
1758	0	45485	19973	96	
1759	0	45488	19970	96	
1760	0	45484	19971	96	
1761	0	45485	19970	96	
1762	0	45484	19969	96	
1763	0	45471	19965	96	
1764	0	45476	19964	96	
1765	0	45473	19964	96	
1766	0	45472	19963	96	
1767	0	45473	19966	96	
1768	0	45473	19963	96	
1769	0	45472	19970	96	
1770	0	45481	19970	96	
1771	0	45478	19972	96	
1772	0	45478	19972	96	
1773	0	45485	19975	96	
1774	0	45481	19976	96	
1775	0	45493	19976	96	
1776	0	45495	19980	96	
1777	0	45495	19980	96	
1778	0	45492	19980	96	
1779	0	45491	19983	96	
1780	0	45499	19983	96	
1781	0	45491	19983	96	
1782	0	45493	19988	96	
1783	0	45500	19989	96	
1784	0	45504	19993	96	
1785	0	45507	20000	94	
1786	0	45510	19998	94	
1787	0	45516	20002	94	
1788	0	45512	20001	94	
1789	0	45515	19997	94	
1790	0	45512	19999	94	
1791	0	45519	20001	94	
1792	0	45520	20000	94	
1793	0	45514	20004	94	
1794	0	45511	20000	94	
1795	0	45513	20004	94	
1796	0	45508	20006	94	
1797	0	45515	20007	94	
1798	0	45521	20012	94	
1799	0	45531	20012	94	
1800	0	45539	20014	94	
1801	0	45543	20015	94	
1802	0	45538	20018	94	
1803	0	45533	20014	94	
1804	0	45535	20012	94	
1805	0	45532	20017	94	
1806	0	45533	20020	94	
1807	0	45529	20022	94	
1808	0	45521	20023	94	
1809	0	45518	20018	94	
1810	0	45510	20013	94	
1811	0	45502	20009	94	
1812	0	45497	20005	94	
1813	0	45495	20002	94	
1814	0	45489	19997	94	
1815	0	45483	19986	94	
1816	0	45472	19985	94	
1817	0	45462	19980	94	
1818	0	45458	19977	94	
1819	0	45456	19974	94	
1820	0	45461	19977	94	
1821	0	45457	19974	94	
1822	0	45462	19976	94	
1823	0	45469	19975	94	
1824	0	45470	19975	94	
1825	0	45469	19976	94	
1826	0	45470	19981	94	
1827	0	45470	19976	94	
1828	0	45464	19976	94	
1829	0	45468	19977	94	
1830	0	45466	19980	94	
1831	0	45466	19982	94	
1832	0	45474	19984	94	
1833	0	45478	19979	94	
1834	0	45477	19978	94	
1835	0	45467	19971	94	
1836	0	45467	19972	94	
1837	0	45461	19974	94	
1838	0	45460	19972	94	
1839	0	45464	19968	94	
1840	0	45457	19971	94	
1841	0	45450	19966	94	
1842	0	45454	19966	94	
1843	0	45453	19962	94	
1844	0	45452	19963	94	
1845	0	45454	19962	94	
1846	0	45460	19963	94	
1847	0	45463	19966	94	
1848	0	45457	19962	94	
1849	0	45463	19969	94	
1850	0	45466	19969	94	
1851	0	45467	19970	94	
1852	0	45465	19972	94	
1853	0	45468	19972	94	
1854	0	45467	19974	94	
1855	0	45474	19975	94	
1856	0	45475	19972	94	
1857	0	45469	19970	94	
1858	0	45469	19976	94	
1859	0	45473	19976	94	
1860	0	45472	19977	94	
1861	0	45476	19974	94	
1862	0	45474	19976	94	
1863	0	45475	19980	94	
1864	0	45478	19980	94	
1865	0	45476	19983	94	
1866	0	45475	19985	94	
1867	0	45484	19985	94	
1868	0	45484	19986	94	
1869	0	45492	19993	94	
1870	0	45487	19990	94	
1871	0	45492	19992	94	
1872	0	45494	19991	94	
1873	0	45495	19991	94	
1874	0	45489	19995	94	
1875	0	45488	19993	94	
1876	0	45485	19995	94	
1877	0	45496	19997	94	
1878	0	45496	20000	94	
1879	0	45503	20004	94	
1880	0	45505	20002	94	
1881	0	45519	20010	94	
1882	0	45515	20012	94	
1883	0	45520	20006	94	
1884	0	45513	20010	94	
1885	0	45510	20008	94	
1886	0	45502	20004	94	
1887	0	45490	20000	94	
1888	0	45482	19995	94	
1889	0	45472	19987	94	
1890	0	45461	19983	94	
1891	0	45456	19977	94	
1892	0	45449	19970	94	
1893	0	45447	19962	94	
1894	0	45439	19958	94	
1895	0	45437	19961	94	
1896	0	45435	19954	94	
1897	0	45428	19955	94	
1898	0	45429	19957	94	
1899	0	45424	19959	94	
1900	0	45425	19958	94	
1901	0	45424	19961	94	
1902	0	45430	19960	94	
1903	0	45431	19966	94	
1904	0	45435	19967	94	
1905	0	45441	19967	94	
1906	0	45444	19964	94	
1907	0	45444	19963	94	
1908	0	45444	19965	94	
1909	0	45436	19964	94	
1910	0	45440	19962	94	
1911	0	45433	19963	94	
1912	0	45434	19963	94	
1913	0	45435	19963	94	
1914	0	45432	19963	94	
1915	0	45438	19963	94	
1916	0	45433	19962	94	
1917	0	45445	19961	94	
1918	0	45438	19961	94	
1919	0	45449	19960	94	
1920	0	45443	19963	94	
1921	0	45442	19961	94	
1922	0	45444	19957	94	
1923	0	45447	19961	94	
1924	0	45447	19957	94	
1925	0	45442	19964	94	
1926	0	45443	19969	94	
1927	0	45447	19967	94	
1928	0	45449	19967	94	
1929	0	45458	19969	94	
1930	0	45457	19973	94	
1931	0	45461	19972	94	
1932	0	45469	19972	94	
1933	0	45462	19977	94	
1934	0	45471	19973	94	
1935	0	45470	19976	94	
1936	0	45461	19978	94	
1937	0	45461	19979	94	
1938	0	45465	19979	94	
1939	0	45470	19982	94	
1940	0	45480	19989	94	
1941	0	45483	19992	94	
1942	0	45490	19994	94	
1943	0	45487	19994	94	
1944	0	45482	19993	94	
1945	0	45482	19993	94	
1946	0	45487	19997	94	
1947	0	45487	19990	94	
1948	0	45487	19994	94	
1949	0	45482	19993	94	
1950	0	45486	19998	94	
1951	0	45497	20003	94	
1952	0	45501	20005	94	
1953	0	45494	20007	94	
1954	0	45502	20011	94	
1955	0	45501	20009	94	
1956	0	45506	20008	94	
1957	0	45509	20013	94	
1958	0	45508	20012	94	
1959	0	45504	20012	94	
1960	0	45504	20016	94	
1961	0	45504	20019	94	
1962	0	45506	20019	94	
1963	0	45503	20021	94	
1964	0	45507	20020	94	
1965	0	45496	20015	94	
1966	0	45494	20010	94	
1967	0	45482	20002	94	
1968	0	45479	19996	94	
1969	0	45468	19989	94	
1970	0	45462	19981	94	
1971	0	45458	19972	94	
1972	0	45454	19973	94	
1973	0	45446	19971	94	
1974	0	45455	19974	94	
1975	0	45455	19970	94	
1976	0	45456	19971	94	
1977	0	45458	19965	94	
1978	0	45450	19968	94	
1979	0	45450	19965	94	
1980	0	45447	19962	94	
1981	0	45447	19963	94	
1982	0	45442	19962	94	
1983	0	45444	19961	94	
1984	0	45448	19956	94	
1985	0	45452	19957	94	
1986	0	45445	19956	94	
1987	0	45449	19953	94	
1988	0	45445	19951	94	
1989	0	45442	19955	94	
1990	0	45434	19950	94	
1991	0	45433	19951	94	
1992	0	45432	19949	94	
1993	0	45424	19946	94	
1994	0	45426	19945	94	
1995	0	45423	19946	94	
1996	0	45428	19945	94	
1997	0	45431	19949	94	
1998	0	45433	19948	94	
1999	0	45440	19948	94	
2000	0	45436	19948	94	
2001	0	45447	19949	94	
2002	0	45444	19945	94	
2003	0	45433	19946	94	
2004	0	45441	19950	94	
2005	0	45439	19949	94	
2006	0	45440	19951	94	
2007	0	45436	19951	94	
2008	0	45444	19951	94	
2009	0	45438	19954	94	
2010	0	45448	19955	94	
2011	0	45455	19956	94	
2012	0	45456	19956	94	
2013	0	45454	19959	94	
2014	0	45460	19958	94	
2015	0	45458	19960	94	
2016	0	45457	19960	94	
2017	0	45459	19959	94	
2018	0	45462	19966	94	
2019	0	45468	19967	94	
2020	0	45471	19968	94	
2021	0	45477	19972	94	
2022	0	45472	19970	94	
2023	0	45468	19969	94	
2024	0	45469	19966	94	
2025	0	45463	19971	94	
2026	0	45468	19976	94	
2027	0	45469	19974	94	
2028	0	45470	19972	94	
2029	0	45472	19980	94	
2030	0	45486	19980	94	
2031	0	45490	19983	94	
2032	0	45495	19988	94	
2033	0	45491	19985	94	
2034	0	45498	19987	94	
2035	0	45502	19986	94	
2036	0	45501	19987	94	
2037	0	45501	19989	94	
2038	0	45500	19989	94	
2039	0	45493	19990	94	
2040	0	45493	19991	94	
2041	0	45490	19992	94	
2042	0	45492	19991	94	
2043	0	45476	19988	94	
2044	0	45468	19983	94	
2045	0	45464	19971	94	
2046	0	45461	19972	94	
2047	0	45453	19970	94	
2048	0	45439	19958	94	
2049	0	45440	19955	94	
2050	0	45428	19947	94	
2051	0	45426	19947	94	
2052	0	45422	19949	94	
2053	0	45421	19948	94	
2054	0	45425	19948	94	
2055	0	45428	19947	94	
2056	0	45423	19948	94	
2057	0	45431	19950	94	
2058	0	45436	19945	94	
2059	0	45432	19951	94	
2060	0	45430	19951	94	
2061	0	45424	19952	94	
2062	0	45430	19951	94	
2063	0	45425	19953	94	
2064	0	45430	19951	94	
2065	0	45430	19954	94	
2066	0	45425	19949	94	
2067	0	45431	19951	94	
2068	0	45436	19957	94	
2069	0	45435	19950	94	
2070	0	45435	19951	94	
2071	0	45433	19945	94	
2072	0	45424	19949	94	
2073	0	45423	19945	94	
2074	0	45428	19945	94	
2075	0	45428	19947	94	
2076	0	45427	19945	94	
2077	0	45428	19944	94	
2078	0	45426	19947	94	
2079	0	45430	19951	94	
2080	0	45428	19951	94	
2081	0	45433	19951	94	
2082	0	45440	19951	94	
2083	0	45439	19949	94	
2084	0	45437	19946	94	
2085	0	45438	19946	94	
2086	0	45437	19947	94	
2087	0	45435	19951	94	
2088	0	45437	19953	94	
2089	0	45445	19955	94	
2090	0	45445	19954	94	
2091	0	45446	19956	94	
2092	0	45450	19961	94	
2093	0	45453	19958	94	
2094	0	45454	19960	94	
2095	0	45453	19958	94	
2096	0	45453	19960	94	
2097	0	45459	19959	94	
2098	0	45458	19961	94	
2099	0	45462	19960	94	
2100	0	45451	19961	94	
2101	0	45455	19958	94	
2102	0	45457	19959	94	
2103	0	45446	19961	94	
2104	0	45452	19960	94	
2105	0	45453	19961	94	
2106	0	45462	19961	94	
2107	0	45455	19962	94	
2108	0	45455	19964	94	
2109	0	45453	19961	94	
2110	0	45450	19964	94	
2111	0	45446	19965	94	
2112	0	45448	19968	94	
2113	0	45451	19971	94	
2114	0	45447	19975	94	
2115	0	45457	19977	94	
2116	0	45456	19982	94	
2117	0	45468	19977	94	
2118	0	45475	19984	94	
2119	0	45478	19987	94	
2120	0	45476	19985	94	
2121	0	45462	19986	94	
2122	0	45461	19979	94	
2123	0	45444	19972	94	
2124	0	45444	19972	94	
2125	0	45432	19963	94	
2126	0	45425	19959	94	
2127	0	45421	19954	94	
2128	0	45419	19949	94	
2129	0	45416	19945	94	
2130	0	45404	19942	94	
2131	0	45410	19940	94	
2132	0	45400	19938	94	
2133	0	45401	19941	94	
2134	0	45401	19939	94	
2135	0	45403	19943	94	
2136	0	45405	19945	94	
2137	0	45406	19947	94	
2138	0	45406	19949	94	
2139	0	45413	19950	94	
2140	0	45413	19951	94	
2141	0	45418	19955	94	
2142	0	45416	19952	94	
2143	0	45413	19955	94	
2144	0	45426	19952	94	
2145	0	45417	19951	94	
2146	0	45414	19953	94	
2147	0	45412	19952	94	
2148	0	45411	19952	94	
2149	0	45408	19950	94	
2150	0	45409	19945	94	
2151	0	45405	19946	94	
2152	0	45411	19939	94	
2153	0	45407	19937	94	
2154	0	45406	19940	94	
2155	0	45405	19939	94	
2156	0	45404	19936	94	
2157	0	45401	19936	94	
2158	0	45397	19934	94	
2159	0	45404	19937	94	
2160	0	45408	19935	94	
2161	0	45407	19940	94	
2162	0	45407	19936	94	
2163	0	45417	19941	94	
2164	0	45415	19942	94	
2165	0	45421	19942	94	
2166	0	45414	19941	94	
2167	0	45416	19938	94	
2168	0	45411	19939	94	
2169	0	45423	19941	94	
2170	0	45420	19937	94	
2171	0	45414	19940	94	
2172	0	45412	19939	94	
2173	0	45413	19939	94	
2174	0	45414	19944	94	
2175	0	45418	19936	94	
2176	0	45412	19942	94	
2177	0	45411	19944	94	
2178	0	45409	19943	94	
2179	0	45411	19946	94	
2180	0	45416	19947	94	
2181	0	45412	19949	94	
2182	0	45413	19953	94	
2183	0	45423	19955	94	
2184	0	45421	19957	94	
2185	0	45423	19954	94	
2186	0	45425	19961	94	
2187	0	45434	19954	94	
2188	0	45430	19954	94	
2189	0	45429	19959	94	
2190	0	45430	19960	94	
2191	0	45426	19962	94	
2192	0	45434	19961	94	
2193	0	45433	19963	94	
2194	0	45434	19965	94	
2195	0	45443	19976	94	
2196	0	45451	19975	94	
2197	0	45450	19980	94	
2198	0	45447	19978	94	
2199	0	45445	19974	94	
2200	0	45437	19974	94	
2201	0	45431	19973	94	
2202	0	45415	19968	94	
2203	0	45411	19957	94	
2204	0	45400	19955	94	
2205	0	45394	19947	94	
2206	0	45386	19944	94	
2207	0	45377	19941	94	
2208	0	45380	19937	94	
2209	0	45384	19940	94	
2210	0	45390	19940	94	
2211	0	45388	19937	94	
2212	0	45389	19934	94	
2213	0	45379	19936	94	
2214	0	45382	19936	94	
2215	0	45380	19933	94	
2216	0	45377	19936	94	
2217	0	45380	19937	94	
2218	0	45387	19940	94	
2219	0	45384	19938	94	
2220	0	45392	19940	94	
2221	0	45388	19939	94	
2222	0	45385	19940	94	
2223	0	45381	19941	94	
2224	0	45381	19936	94	
2225	0	45382	19935	94	
2226	0	45382	19935	94	
2227	0	45378	19936	94	
2228	0	45374	19931	94	
2229	0	45374	19928	94	
2230	0	45375	19932	94	
2231	0	45378	19931	94	
2232	0	45379	19928	94	
2233	0	45380	19930	94	
2234	0	45383	19930	94	
2235	0	45382	19931	94	
2236	0	45381	19930	94	
2237	0	45380	19928	94	
2238	0	45376	19930	94	
2239	0	45382	19931	94	
2240	0	45379	19927	94	
2241	0	45386	19934	94	
2242	0	45390	19933	94	
2243	0	45396	19932	94	
2244	0	45393	19939	94	
2245	0	45392	19935	94	
2246	0	45390	19939	94	
2247	0	45393	19934	94	
2248	0	45401	19936	94	
2249	0	45399	19944	94	
2250	0	45398	19942	94	
2251	0	45399	19939	94	
2252	0	45400	19940	94	
2253	0	45403	19942	94	
2254	0	45410	19948	94	
2255	0	45414	19945	94	
2256	0	45411	19946	94	
2257	0	45410	19945	94	
2258	0	45412	19948	94	
2259	0	45412	19948	94	
2260	0	45408	19948	94	
2261	0	45400	19948	94	
2262	0	45410	19948	94	
2263	0	45410	19955	94	
2264	0	45414	19956	94	
2265	0	45418	19958	94	
2266	0	45420	19954	94	
2267	0	45425	19954	94	
2268	0	45423	19957	94	
2269	0	45422	19956	94	
2270	0	45423	19959	94	
2271	0	45432	19961	94	
2272	0	45437	19967	94	
2273	0	45442	19970	94	
2274	0	45444	19970	94	
2275	0	45444	19973	94	
2276	0	45437	19971	94	
2277	0	45440	19968	94	
2278	0	45432	19971	94	
2279	0	45425	19963	94	
2280	0	45420	19960	94	
2281	0	45414	19954	94	
2282	0	45395	19947	94	
2283	0	45387	19942	94	
2284	0	45384	19937	94	
2285	0	45369	19932	94	
2286	0	45362	19926	94	
2287	0	45363	19920	94	
2288	0	45359	19923	94	
2289	0	45367	19917	94	
2290	0	45365	19920	94	
2291	0	45361	19921	94	
2292	0	45363	19919	94	
2293	0	45359	19920	94	
2294	0	45357	19917	94	
2295	0	45360	19916	94	
2296	0	45356	19917	94	
2297	0	45366	19919	94	
2298	0	45369	19923	94	
2299	0	45374	19924	94	
2300	0	45371	19924	94	
2301	0	45378	19922	94	
2302	0	45366	19920	94	
2303	0	45372	19921	94	
2304	0	45372	19922	94	
2305	0	45361	19918	94	
2306	0	45370	19917	94	
2307	0	45364	19916	94	
2308	0	45360	19920	94	
2309	0	45372	19917	94	
2310	0	45368	19917	94	
2311	0	45372	19916	94	
2312	0	45368	19915	94	
2313	0	45375	19915	94	
2314	0	45366	19913	94	
2315	0	45366	19916	94	
2316	0	45368	19916	94	
2317	0	45369	19921	94	
2318	0	45375	19923	94	
2319	0	45375	19921	94	
2320	0	45374	19924	94	
2321	0	45374	19925	94	
2322	0	45380	19928	94	
2323	0	45386	19931	94	
2324	0	45385	19936	94	
2325	0	45397	19936	94	
2326	0	45393	19937	94	
2327	0	45399	19940	94	
2328	0	45405	19942	94	
2329	0	45402	19939	94	
2330	0	45396	19939	94	
2331	0	45398	19944	94	
2332	0	45409	19943	94	
2333	0	45410	19949	94	
2334	0	45419	19947	94	
2335	0	45416	19948	94	
2336	0	45418	19941	94	
2337	0	45411	19945	94	
2338	0	45412	19943	94	
2339	0	45412	19947	94	
2340	0	45419	19950	94	
2341	0	45415	19944	94	
2342	0	45416	19948	94	
2343	0	45418	19952	94	
2344	0	45413	19953	94	
2345	0	45419	19956	94	
2346	0	45421	19958	94	
2347	0	45431	19954	94	
2348	0	45435	19961	94	
2349	0	45441	19963	94	
2350	0	45444	19962	94	
2351	0	45441	19959	94	
2352	0	45442	19965	94	
2353	0	45447	19967	94	
2354	0	45450	19964	94	
2355	0	45451	19966	94	
2356	0	45448	19967	94	
2357	0	45445	19966	94	
2358	0	45443	19969	94	
2359	0	45448	19969	94	
2360	0	45438	19965	94	
2361	0	45436	19964	94	
2362	0	45433	19960	94	
2363	0	45419	19949	94	
2364	0	45405	19938	94	
2365	0	45396	19931	94	
2366	0	45386	19923	94	
2367	0	45375	19914	94	
2368	0	45374	19909	94	
2369	0	45369	19908	94	
2370	0	45357	19904	94	
2371	0	45355	19902	94	
2372	0	45355	19901	94	
2373	0	45353	19900	94	
2374	0	45349	19901	94	
2375	0	45351	19898	94	
2376	0	45359	19900	94	
2377	0	45349	19899	94	
2378	0	45359	19898	94	
2379	0	45358	19898	94	
2380	0	45349	19898	94	
2381	0	45348	19900	94	
2382	0	45353	19901	94	
2383	0	45350	19899	94	
2384	0	45359	19898	94	
2385	0	45354	19902	93	
2386	0	45360	19899	93	
2387	0	45354	19897	93	
2388	0	45355	19895	93	
2389	0	45352	19895	93	
2390	0	45349	19889	93	
2391	0	45343	19892	93	
2392	0	45347	19889	93	
2393	0	45350	19890	93	
2394	0	45353	19892	93	
2395	0	45357	19887	93	
2396	0	45355	19887	93	
2397	0	45348	19889	93	
2398	0	45346	19883	93	
2399	0	45346	19884	93	
2400	0	45349	19883	93	
2401	0	45345	19883	93	
2402	0	45355	19888	93	
2403	0	45344	19889	93	
2404	0	45349	19890	93	
2405	0	45352	19888	93	
2406	0	45362	19889	93	
2407	0	45362	19890	93	
2408	0	45357	19892	93	
2409	0	45359	19893	93	
2410	0	45358	19892	93	
2411	0	45360	19892	93	
2412	0	45361	19888	93	
2413	0	45352	19892	93	
2414	0	45360	19893	93	
2415	0	45360	19892	93	
2416	0	45361	19894	93	
2417	0	45366	19892	93	
2418	0	45365	19891	93	
2419	0	45366	19896	93	
2420	0	45368	19900	93	
2421	0	45369	19903	93	
2422	0	45367	19900	93	
2423	0	45375	19902	93	
2424	0	45362	19900	93	
2425	0	45377	19902	93	
2426	0	45372	19904	93	
2427	0	45373	19906	93	
2428	0	45379	19908	93	
2429	0	45381	19909	93	
2430	0	45382	19912	93	
2431	0	45383	19916	93	
2432	0	45387	19917	93	
2433	0	45392	19924	93	
2434	0	45400	19924	93	
2435	0	45401	19922	93	
2436	0	45404	19926	93	
2437	0	45406	19920	93	
2438	0	45393	19919	93	
2439	0	45393	19917	93	
2440	0	45387	19916	93	
2441	0	45380	19913	93	
2442	0	45367	19912	93	
2443	0	45364	19903	93	
2444	0	45362	19896	93	
2445	0	45353	19886	93	
2446	0	45341	19877	93	
2447	0	45336	19872	93	
2448	0	45328	19868	93	
2449	0	45323	19859	93	
2450	0	45319	19856	93	
2451	0	45320	19860	93	
2452	0	45315	19856	93	
2453	0	45318	19858	93	
2454	0	45313	19860	93	
2455	0	45319	19858	93	
2456	0	45323	19858	93	
2457	0	45318	19861	93	
2458	0	45321	19861	93	
2459	0	45330	19858	93	
2460	0	45327	19855	93	
2461	0	45320	19852	93	
2462	0	45328	19858	93	
2463	0	45324	19850	93	
2464	0	45318	19850	93	
2465	0	45324	19852	93	
2466	0	45319	19852	93	
2467	0	45310	19849	93	
2468	0	45320	19844	93	
2469	0	45312	19844	93	
2470	0	45312	19848	93	
2471	0	45311	19842	93	
2472	0	45314	19839	93	
2473	0	45309	19839	93	
2474	0	45306	19836	93	
2475	0	45304	19835	93	
2476	0	45309	19831	93	
2477	0	45304	19833	93	
2478	0	45297	19834	93	
2479	0	45300	19835	93	
2480	0	45302	19840	93	
2481	0	45313	19838	93	
2482	0	45319	19840	93	
2483	0	45322	19840	93	
2484	0	45332	19846	93	
2485	0	45323	19846	93	
2486	0	45321	19843	93	
2487	0	45325	19844	93	
2488	0	45323	19843	93	
2489	0	45323	19847	93	
2490	0	45322	19845	93	
2491	0	45327	19846	93	
2492	0	45329	19847	93	
2493	0	45330	19853	93	
2494	0	45340	19856	93	
2495	0	45337	19856	93	
2496	0	45342	19854	93	
2497	0	45340	19854	93	
2498	0	45341	19855	93	
2499	0	45344	19851	93	
2500	0	45343	19852	93	
2501	0	45338	19852	93	
2502	0	45336	19856	93	
2503	0	45347	19859	93	
2504	0	45353	19861	93	
2505	0	45354	19863	93	
2506	0	45361	19862	93	
2507	0	45362	19861	93	
2508	0	45357	19861	93	
2509	0	45364	19863	93	
2510	0	45367	19861	93	
2511	0	45364	19866	93	
2512	0	45366	19864	93	
2513	0	45365	19869	93	
2514	0	45369	19873	93	
2515	0	45369	19874	93	
2516	0	45377	19872	93	
2517	0	45370	19871	93	
2518	0	45360	19862	93	
2519	0	45349	19857	93	
2520	0	45338	19849	93	
2521	0	45330	19843	93	
2522	0	45315	19832	93	
2523	0	45307	19823	93	
2524	0	45305	19817	93	
2525	0	45291	19808	93	
2526	0	45283	19800	93	
2527	0	45276	19793	93	
2528	0	45271	19789	93	
2529	0	45269	19787	93	
2530	0	45264	19783	93	
2531	0	45268	19785	93	
2532	0	45259	19789	93	
2533	0	45269	19788	93	
2534	0	45267	19787	93	
2535	0	45268	19782	93	
2536	0	45270	19782	93	
2537	0	45269	19781	93	
2538	0	45268	19787	93	
2539	0	45275	19786	93	
2540	0	45267	19779	93	
2541	0	45265	19783	93	
2542	0	45269	19786	93	
2543	0	45272	19785	93	
2544	0	45269	19781	93	
2545	0	45270	19786	93	
2546	0	45271	19782	93	
2547	0	45276	19781	93	
2548	0	45279	19778	93	
2549	0	45279	19776	93	
2550	0	45272	19778	93	
2551	0	45273	19772	93	
2552	0	45263	19772	93	
2553	0	45271	19773	93	
2554	0	45267	19773	93	
2555	0	45266	19775	93	
2556	0	45266	19778	93	
2557	0	45272	19777	93	
2558	0	45277	19780	93	
2559	0	45279	19779	93	
2560	0	45284	19782	93	
2561	0	45289	19786	93	
2562	0	45288	19788	93	
2563	0	45290	19789	93	
2564	0	45291	19791	93	
2565	0	45296	19788	93	
2566	0	45296	19791	93	
2567	0	45300	19796	93	
2568	0	45302	19800	93	
2569	0	45304	19801	93	
2570	0	45310	19803	93	
2571	0	45310	19808	93	
2572	0	45315	19810	93	
2573	0	45317	19814	93	
2574	0	45327	19815	93	
2575	0	45337	19815	93	
2576	0	45340	19816	93	
2577	0	45340	19820	93	
2578	0	45337	19816	93	
2579	0	45344	19822	93	
2580	0	45342	19823	93	
2581	0	45344	19820	93	
2582	0	45343	19823	93	
2583	0	45341	19828	93	
2584	0	45341	19829	93	
2585	0	45340	19832	93	
2586	0	45351	19837	93	
2587	0	45367	19839	93	
2588	0	45374	19842	93	
2589	0	45378	19851	93	
2590	0	45383	19850	93	
2591	0	45390	19852	93	
2592	0	45389	19852	93	
2593	0	45387	19852	93	
2594	0	45388	19852	93	
2595	0	45383	19852	93	
2596	0	45370	19848	93	
2597	0	45364	19841	93	
2598	0	45362	19834	93	
2599	0	45352	19823	93	
2600	0	45342	19810	93	
2601	0	45335	19807	93	
2602	0	45314	19794	93	
2603	0	45312	19787	93	
2604	0	45294	19778	93	
2605	0	45302	19777	93	
2606	0	45293	19772	93	
2607	0	45290	19769	93	
2608	0	45286	19768	93	
2609	0	45287	19767	93	
2610	0	45289	19770	93	
2611	0	45292	19769	93	
2612	0	45292	19764	93	
2613	0	45296	19767	93	
2614	0	45295	19764	93	
2615	0	45288	19764	93	
2616	0	45284	19763	93	
2617	0	45282	19757	93	
2618	0	45291	19760	93	
2619	0	45287	19764	93	
2620	0	45288	19765	93	
2621	0	45284	19762	93	
2622	0	45290	19762	93	
2623	0	45288	19763	93	
2624	0	45287	19761	93	
2625	0	45287	19764	93	
2626	0	45294	19759	93	
2627	0	45298	19762	93	
2628	0	45298	19757	93	
2629	0	45294	19757	93	
2630	0	45291	19755	93	
2631	0	45298	19749	93	
2632	0	45295	19752	93	
2633	0	45293	19750	93	
2634	0	45294	19753	93	
2635	0	45290	19757	93	
2636	0	45290	19759	93	
2637	0	45301	19761	93	
2638	0	45301	19764	93	
2639	0	45309	19769	93	
2640	0	45308	19768	93	
2641	0	45317	19767	93	
2642	0	45320	19769	93	
2643	0	45322	19770	93	
2644	0	45320	19768	93	
2645	0	45322	19769	93	
2646	0	45321	19771	93	
2647	0	45325	19773	93	
2648	0	45322	19774	93	
2649	0	45331	19775	93	
2650	0	45335	19780	93	
2651	0	45336	19775	93	
2652	0	45338	19780	93	
2653	0	45336	19779	93	
2654	0	45340	19778	93	
2655	0	45337	19779	93	
2656	0	45340	19783	93	
2657	0	45348	19784	93	
2658	0	45352	19783	93	
2659	0	45353	19787	93	
2660	0	45360	19787	93	
2661	0	45363	19785	93	
2662	0	45364	19792	93	
2663	0	45350	19785	93	
2664	0	45354	19790	93	
2665	0	45361	19788	93	
2666	0	45368	19796	93	
2667	0	45374	19800	93	
2668	0	45375	19797	93	
2669	0	45380	19800	93	
2670	0	45383	19802	93	
2671	0	45380	19797	93	
2672	0	45372	19795	93	
2673	0	45370	19787	93	
2674	0	45366	19781	93	
2675	0	45351	19774	93	
2676	0	45338	19761	93	
2677	0	45319	19753	93	
2678	0	45305	19743	93	
2679	0	45298	19738	93	
2680	0	45285	19730	93	
2681	0	45284	19727	93	
2682	0	45277	19724	93	
2683	0	45274	19723	93	
2684	0	45281	19722	93	
2685	0	45287	19721	96	
2686	0	45284	19721	96	
2687	0	45285	19722	96	
2688	0	45282	19721	96	
2689	0	45281	19720	96	
2690	0	45285	19720	96	
2691	0	45287	19722	96	
2692	0	45290	19724	96	
2693	0	45296	19730	96	
2694	0	45296	19724	96	
2695	0	45293	19727	96	
2696	0	45293	19726	96	
2697	0	45286	19728	96	
2698	0	45296	19727	96	
2699	0	45287	19727	96	
2700	0	45290	19729	96	
2701	0	45287	19723	96	
2702	0	45284	19728	96	
2703	0	45282	19729	96	
2704	0	45290	19726	96	
2705	0	45296	19727	96	
2706	0	45298	19726	96	
2707	0	45299	19726	96	
2708	0	45298	19727	96	
2709	0	45303	19721	96	
2710	0	45304	19724	96	
2711	0	45306	19728	96	
2712	0	45299	19735	96	
2713	0	45304	19729	96	
2714	0	45307	19733	96	
2715	0	45308	19730	96	
2716	0	45314	19734	96	
2717	0	45322	19734	96	
2718	0	45324	19740	96	
2719	0	45326	19739	96	
2720	0	45325	19742	96	
2721	0	45330	19737	96	
2722	0	45328	19741	96	
2723	0	45333	19743	96	
2724	0	45333	19746	96	
2725	0	45330	19747	96	
2726	0	45342	19752	96	
2727	0	45341	19752	96	
2728	0	45349	19754	96	
2729	0	45350	19757	96	
2730	0	45353	19753	96	
2731	0	45347	19753	96	
2732	0	45349	19755	96	
2733	0	45345	19759	96	
2734	0	45353	19765	96	
2735	0	45361	19763	96	
2736	0	45363	19774	96	
2737	0	45369	19776	96	
2738	0	45381	19776	96	
2739	0	45382	19776	96	
2740	0	45389	19781	96	
2741	0	45389	19779	96	
2742	0	45386	19780	96	
2743	0	45392	19781	96	
2744	0	45388	19781	96	
2745	0	45385	19785	96	
2746	0	45384	19788	96	
2747	0	45386	19783	96	
2748	0	45390	19787	96	
2749	0	45385	19782	96	
2750	0	45373	19779	96	
2751	0	45366	19769	96	
2752	0	45363	19765	96	
2753	0	45348	19760	96	
2754	0	45343	19753	96	
2755	0	45334	19748	96	
2756	0	45327	19744	96	
2757	0	45327	19738	96	
2758	0	45322	19736	96	
2759	0	45329	19736	96	
2760	0	45321	19744	96	
2761	0	45323	19746	96	
2762	0	45338	19748	96	
2763	0	45338	19753	96	
2764	0	45342	19753	96	
2765	0	45348	19748	96	
2766	0	45341	19752	96	
2767	0	45337	19751	96	
2768	0	45344	19750	96	
2769	0	45345	19748	96	
2770	0	45344	19755	96	
2771	0	45339	19753	96	
2772	0	45346	19755	96	
2773	0	45352	19757	96	
2774	0	45357	19757	96	
2775	0	45359	19757	96	
2776	0	45358	19751	96	
2777	0	45354	19752	96	
2778	0	45356	19747	96	
2779	0	45350	19748	96	
2780	0	45354	19745	96	
2781	0	45354	19746	96	
2782	0	45354	19753	96	
2783	0	45349	19750	96	
2784	0	45359	19754	96	
2785	0	45366	19757	96	
2786	0	45368	19758	96	
2787	0	45370	19756	96	
2788	0	45380	19753	96	
2789	0	45370	19756	96	
2790	0	45366	19758	96	
2791	0	45374	19754	96	
2792	0	45379	19762	96	
2793	0	45379	19761	96	
2794	0	45380	19764	96	
2795	0	45378	19767	96	
2796	0	45388	19768	96	
2797	0	45391	19768	96	
2798	0	45401	19772	96	
2799	0	45395	19771	96	
2800	0	45401	19769	96	
2801	0	45397	19773	96	
2802	0	45405	19769	96	
2803	0	45406	19774	96	
2804	0	45400	19773	96	
2805	0	45404	19776	96	
2806	0	45405	19777	96	
2807	0	45414	19782	96	
2808	0	45418	19779	96	
2809	0	45416	19780	96	
2810	0	45418	19782	96	
2811	0	45413	19788	96	
2812	0	45412	19784	96	
2813	0	45420	19782	96	
2814	0	45417	19787	96	
2815	0	45419	19789	96	
2816	0	45425	19786	96	
2817	0	45432	19792	96	
2818	0	45433	19794	96	
2819	0	45434	19795	96	
2820	0	45436	19800	96	
2821	0	45442	19792	96	
2822	0	45433	19795	96	
2823	0	45432	19793	96	
2824	0	45426	19790	96	
2825	0	45423	19786	96	
2826	0	45413	19784	96	
2827	0	45402	19782	96	
2828	0	45405	19771	96	
2829	0	45390	19764	96	
2830	0	45375	19760	96	
2831	0	45372	19752	96	
2832	0	45368	19754	96	
2833	0	45366	19750	96	
2834	0	45367	19744	96	
2835	0	45368	19746	96	
2836	0	45373	19742	96	
2837	0	45370	19743	96	
2838	0	45367	19740	96	
2839	0	45368	19738	96	
2840	0	45370	19740	96	
2841	0	45361	19740	96	
2842	0	45361	19738	96	
2843	0	45361	19739	96	
2844	0	45368	19738	96	
2845	0	45365	19736	96	
2846	0	45372	19743	96	
2847	0	45371	19740	96	
2848	0	45374	19742	96	
2849	0	45370	19743	96	
2850	0	45382	19741	96	
2851	0	45376	19742	96	
2852	0	45375	19745	96	
2853	0	45363	19738	96	
2854	0	45370	19744	96	
2855	0	45376	19746	96	
2856	0	45379	19743	96	
2857	0	45375	19743	96	
2858	0	45379	19740	96	
2859	0	45376	19737	96	
2860	0	45386	19738	96	
2861	0	45381	19741	96	
2862	0	45384	19740	96	
2863	0	45383	19741	96	
2864	0	45385	19744	96	
2865	0	45386	19743	96	
2866	0	45393	19746	96	
2867	0	45398	19747	96	
2868	0	45395	19743	96	
2869	0	45398	19750	96	
2870	0	45404	19746	96	
2871	0	45406	19745	96	
2872	0	45408	19748	96	
2873	0	45411	19747	96	
2874	0	45407	19748	96	
2875	0	45407	19749	96	
2876	0	45412	19748	96	
2877	0	45401	19752	96	
2878	0	45404	19752	96	
2879	0	45408	19754	96	
2880	0	45412	19756	96	
2881	0	45418	19761	96	
2882	0	45425	19764	96	
2883	0	45423	19763	96	
2884	0	45424	19759	96	
2885	0	45425	19762	96	
2886	0	45421	19763	96	
2887	0	45429	19765	96	
2888	0	45420	19764	96	
2889	0	45423	19764	96	
2890	0	45434	19769	96	
2891	0	45442	19773	96	
2892	0	45444	19773	96	
2893	0	45441	19770	96	
2894	0	45439	19772	96	
2895	0	45443	19774	96	
2896	0	45444	19776	96	
2897	0	45449	19775	96	
2898	0	45454	19783	96	
2899	0	45457	19781	96	
2900	0	45458	19784	96	
2901	0	45459	19788	96	
2902	0	45459	19787	96	
2903	0	45466	19790	96	
2904	0	45463	19789	96	
2905	0	45459	19786	96	
2906	0	45444	19785	96	
2907	0	45437	19776	96	
2908	0	45433	19770	96	
2909	0	45422	19767	96	
2910	0	45416	19761	96	
2911	0	45405	19757	96	
2912	0	45399	19750	96	
2913	0	45402	19748	96	
2914	0	45389	19744	96	
2915	0	45394	19743	96	
2916	0	45397	19742	96	
2917	0	45394	19742	96	
2918	0	45392	19740	96	
2919	0	45388	19740	96	
2920	0	45386	19741	96	
2921	0	45391	19743	96	
2922	0	45392	19742	96	
2923	0	45397	19744	96	
2924	0	45390	19741	96	
2925	0	45396	19741	96	
2926	0	45398	19739	96	
2927	0	45391	19743	96	
2928	0	45389	19743	96	
2929	0	45386	19741	96	
2930	0	45394	19742	96	
2931	0	45392	19742	96	
2932	0	45402	19749	96	
2933	0	45399	19743	96	
2934	0	45407	19743	96	
2935	0	45400	19739	96	
2936	0	45395	19740	96	
2937	0	45396	19735	96	
2938	0	45401	19738	96	
2939	0	45399	19741	96	
2940	0	45408	19742	96	
2941	0	45400	19735	96	
2942	0	45406	19734	96	
2943	0	45401	19736	96	
2944	0	45409	19743	96	
2945	0	45414	19738	96	
2946	0	45403	19738	96	
2947	0	45408	19738	96	
2948	0	45404	19743	96	
2949	0	45412	19746	96	
2950	0	45410	19746	96	
2951	0	45415	19753	96	
2952	0	45418	19754	96	
2953	0	45418	19753	96	
2954	0	45426	19752	96	
2955	0	45428	19757	96	
2956	0	45427	19755	96	
2957	0	45428	19758	96	
2958	0	45427	19760	96	
2959	0	45431	19761	96	
2960	0	45434	19765	96	
2961	0	45438	19760	96	
2962	0	45437	19765	96	
2963	0	45435	19765	96	
2964	0	45439	19767	96	
2965	0	45445	19767	96	
2966	0	45438	19768	96	
2967	0	45439	19770	96	
2968	0	45448	19772	96	
2969	0	45444	19771	96	
2970	0	45444	19776	96	
2971	0	45447	19776	96	
2972	0	45446	19775	96	
2973	0	45453	19776	96	
2974	0	45458	19778	96	
2975	0	45457	19781	96	
2976	0	45463	19781	96	
2977	0	45465	19783	96	
2978	0	45467	19783	96	
2979	0	45465	19784	96	
2980	0	45459	19790	96	
2981	0	45465	19791	96	
2982	0	45474	19796	96	
2983	0	45481	19795	96	
2984	0	45476	19796	96	
2985	0	45483	19800	94	
2986	0	45480	19795	94	
2987	0	45479	19797	94	
2988	0	45484	19796	94	
2989	0	45482	19798	94	
2990	0	45480	19801	94	
2991	0	45479	19797	94	
2992	0	45470	19796	94	
2993	0	45473	19786	94	
2994	0	45454	19782	94	
2995	0	45446	19776	94	
2996	0	45437	19768	94	
2997	0	45425	19766	94	
2998	0	45427	19761	94	
2999	0	45413	19755	94	
3000	0	45412	19757	94	
3001	0	45417	19752	94	
3002	0	45413	19756	94	
3003	0	45411	19752	94	
3004	0	45414	19749	94	
3005	0	45409	19748	94	
3006	0	45405	19749	94	
3007	0	45408	19748	94	
3008	0	45418	19754	94	
3009	0	45412	19752	94	
3010	0	45422	19751	94	
3011	0	45421	19750	94	
3012	0	45418	19753	94	
3013	0	45420	19753	94	
3014	0	45418	19753	94	
3015	0	45415	19758	94	
3016	0	45418	19755	94	
3017	0	45423	19758	94	
3018	0	45419	19758	94	
3019	0	45419	19753	94	
3020	0	45418	19753	94	
3021	0	45421	19754	94	
3022	0	45417	19754	94	
3023	0	45417	19751	94	
3024	0	45404	19744	94	
3025	0	45413	19748	94	
3026	0	45413	19746	94	
3027	0	45416	19748	94	
3028	0	45418	19750	94	
3029	0	45419	19745	94	
3030	0	45426	19749	94	
3031	0	45419	19746	94	
3032	0	45428	19750	94	
3033	0	45429	19751	94	
3034	0	45423	19754	94	
3035	0	45421	19752	94	
3036	0	45432	19752	94	
3037	0	45433	19758	94	
3038	0	45429	19759	94	
3039	0	45436	19761	94	
3040	0	45442	19762	94	
3041	0	45438	19757	94	
3042	0	45445	19760	94	
3043	0	45443	19764	94	
3044	0	45434	19767	94	
3045	0	45437	19766	94	
3046	0	45437	19768	94	
3047	0	45440	19770	94	
3048	0	45443	19770	94	
3049	0	45446	19770	94	
3050	0	45452	19775	94	
3051	0	45451	19777	94	
3052	0	45455	19774	94	
3053	0	45454	19773	94	
3054	0	45451	19773	94	
3055	0	45459	19775	94	
3056	0	45459	19783	94	
3057	0	45462	19779	94	
3058	0	45459	19781	94	
3059	0	45466	19780	94	
3060	0	45468	19784	94	
3061	0	45473	19783	94	
3062	0	45471	19781	94	
3063	0	45473	19787	94	
3064	0	45465	19787	94	
3065	0	45467	19791	94	
3066	0	45468	19793	94	
3067	0	45474	19798	94	
3068	0	45488	19800	94	
3069	0	45489	19803	94	
3070	0	45494	19804	94	
3071	0	45487	19800	94	
3072	0	45493	19798	94	
3073	0	45484	19797	94	
3074	0	45479	19798	94	
3075	0	45464	19793	94	
3076	0	45462	19794	94	
3077	0	45452	19786	94	
3078	0	45452	19782	94	
3079	0	45450	19778	94	
3080	0	45443	19774	94	
3081	0	45429	19767	94	
3082	0	45430	19766	94	
3083	0	45425	19762	94	
3084	0	45420	19762	94	
3085	0	45426	19761	94	
3086	0	45419	19761	94	
3087	0	45429	19761	94	
3088	0	45430	19767	94	
3089	0	45434	19768	94	
3090	0	45426	19764	94	
3091	0	45435	19766	94	
3092	0	45431	19763	94	
3093	0	45431	19767	94	
3094	0	45428	19766	94	
3095	0	45431	19767	94	
3096	0	45431	19770	94	
3097	0	45431	19772	94	
3098	0	45434	19771	94	
3099	0	45444	19772	94	
3100	0	45435	19771	94	
3101	0	45440	19773	94	
3102	0	45436	19774	94	
3103	0	45435	19772	94	
3104	0	45435	19770	94	
3105	0	45429	19771	94	
3106	0	45433	19773	94	
3107	0	45439	19773	94	
3108	0	45443	19773	94	
3109	0	45435	19777	94	
3110	0	45446	19779	94	
3111	0	45444	19778	94	
3112	0	45446	19781	94	
3113	0	45442	19779	94	
3114	0	45448	19780	94	
3115	0	45452	19784	94	
3116	0	45454	19788	94	
3117	0	45458	19790	94	
3118	0	45464	19794	94	
3119	0	45458	19793	94	
3120	0	45467	19794	94	
3121	0	45468	19798	94	
3122	0	45466	19803	94	
3123	0	45473	19804	94	
3124	0	45475	19808	94	
3125	0	45483	19809	94	
3126	0	45480	19811	94	
3127	0	45481	19815	94	
3128	0	45481	19817	94	
3129	0	45483	19821	94	
3130	0	45489	19820	94	
3131	0	45497	19825	94	
3132	0	45500	19826	94	
3133	0	45499	19824	94	
3134	0	45503	19827	94	
3135	0	45500	19828	94	
3136	0	45500	19832	94	
3137	0	45503	19831	94	
3138	0	45509	19835	94	
3139	0	45518	19838	94	
3140	0	45514	19837	94	
3141	0	45517	19842	94	
3142	0	45521	19842	94	
3143	0	45521	19837	94	
3144	0	45530	19841	94	
3145	0	45530	19839	94	
3146	0	45526	19844	94	
3147	0	45531	19839	94	
3148	0	45528	19842	94	
3149	0	45530	19843	94	
3150	0	45538	19846	94	
3151	0	45538	19845	94	
3152	0	45534	19849	94	
3153	0	45537	19847	94	
3154	0	45533	19851	94	
3155	0	45534	19851	94	
3156	0	45531	19851	94	
3157	0	45526	19848	94	
3158	0	45525	19846	94	
3159	0	45526	19848	94	
3160	0	45515	19839	94	
3161	0	45518	19834	94	
3162	0	45498	19828	94	
3163	0	45491	19823	94	
3164	0	45483	19819	94	
3165	0	45486	19817	94	
3166	0	45484	19816	94	
3167	0	45476	19813	94	
3168	0	45473	19813	94	
3169	0	45479	19813	94	
3170	0	45476	19817	94	
3171	0	45479	19819	94	
3172	0	45480	19816	94	
3173	0	45482	19818	94	
3174	0	45482	19817	94	
3175	0	45485	19818	94	
3176	0	45493	19820	94	
3177	0	45487	19820	94	
3178	0	45485	19819	94	
3179	0	45490	19819	94	
3180	0	45490	19825	94	
3181	0	45488	19827	94	
3182	0	45493	19827	94	
3183	0	45493	19827	94	
3184	0	45491	19826	94	
3185	0	45497	19826	94	
3186	0	45501	19828	94	
3187	0	45498	19825	94	
3188	0	45497	19826	94	
3189	0	45490	19826	94	
3190	0	45497	19827	94	
3191	0	45500	19829	94	
3192	0	45494	19831	94	
3193	0	45494	19829	94	
3194	0	45499	19836	94	
3195	0	45502	19835	94	
3196	0	45513	19839	94	
3197	0	45510	19842	94	
3198	0	45513	19838	94	
3199	0	45521	19841	94	
3200	0	45515	19841	94	
3201	0	45521	19839	94	
3202	0	45510	19842	94	
3203	0	45514	19845	94	
3204	0	45521	19848	94	
3205	0	45525	19849	94	
3206	0	45533	19854	94	
3207	0	45530	19858	94	
3208	0	45540	19861	94	
3209	0	45538	19861	94	
3210	0	45547	19863	94	
3211	0	45542	19864	94	
3212	0	45545	19864	94	
3213	0	45542	19860	94	
3214	0	45547	19862	94	
3215	0	45543	19858	94	
3216	0	45544	19863	94	
3217	0	45549	19863	94	
3218	0	45549	19868	94	
3219	0	45549	19868	94	
3220	0	45551	19870	94	
3221	0	45562	19869	94	
3222	0	45555	19869	94	
3223	0	45553	19868	94	
3224	0	45562	19872	94	
3225	0	45561	19873	94	
3226	0	45557	19873	94	
3227	0	45562	19874	94	
3228	0	45557	19870	94	
3229	0	45558	19873	94	
3230	0	45564	19876	94	
3231	0	45567	19877	94	
3232	0	45567	19881	94	
3233	0	45578	19876	94	
3234	0	45576	19880	94	
3235	0	45580	19882	94	
3236	0	45581	19880	94	
3237	0	45583	19881	94	
3238	0	45583	19886	94	
3239	0	45584	19881	94	
3240	0	45585	19885	94	
3241	0	45579	19878	94	
3242	0	45574	19880	94	
3243	0	45561	19871	94	
3244	0	45557	19872	94	
3245	0	45550	19867	94	
3246	0	45538	19860	94	
3247	0	45533	19856	94	
3248	0	45527	19849	94	
3249	0	45530	19846	94	
3250	0	45525	19842	94	
3251	0	45522	19843	94	
3252	0	45515	19839	94	
3253	0	45510	19838	94	
3254	0	45523	19837	94	
3255	0	45524	19834	94	
3256	0	45521	19833	94	
3257	0	45513	19834	94	
3258	0	45514	19831	94	
3259	0	45514	19830	94	
3260	0	45518	19826	94	
3261	0	45523	19828	94	
3262	0	45514	19828	94	
3263	0	45520	19822	94	
3264	0	45517	19822	94	
3265	0	45513	19823	94	
3266	0	45515	19820	94	
3267	0	45510	19814	94	
3268	0	45517	19817	94	
3269	0	45510	19819	94	
3270	0	45511	19820	94	
3271	0	45509	19813	94	
3272	0	45507	19808	94	
3273	0	45504	19812	94	
3274	0	45500	19804	94	
3275	0	45497	19807	94	
3276	0	45498	19803	94	
3277	0	45499	19802	94	
3278	0	45497	19803	94	
3279	0	45498	19796	94	
3280	0	45502	19797	94	
3281	0	45499	19799	94	
3282	0	45498	19796	94	
3283	0	45497	19797	94	
3284	0	45495	19796	94	
3285	0	45502	19799	95	
3286	0	45500	19800	95	
3287	0	45505	19798	95	
3288	0	45498	19797	95	
3289	0	45504	19796	95	
3290	0	45497	19795	95	
3291	0	45493	19796	95	
3292	0	45496	19799	95	
3293	0	45500	19798	95	
3294	0	45499	19800	95	
3295	0	45508	19800	95	
3296	0	45500	19802	95	
3297	0	45502	19802	95	
3298	0	45503	19803	95	
3299	0	45508	19807	95	
3300	0	45500	19801	95	
3301	0	45503	19800	95	
3302	0	45503	19804	95	
3303	0	45500	19804	95	
3304	0	45505	19804	95	
3305	0	45503	19806	95	
3306	0	45503	19806	95	
3307	0	45510	19805	95	
3308	0	45501	19805	95	
3309	0	45507	19807	95	
3310	0	45510	19806	95	
3311	0	45505	19809	95	
3312	0	45508	19809	95	
3313	0	45509	19806	95	
3314	0	45512	19814	95	
3315	0	45517	19816	95	
3316	0	45517	19817	95	
3317	0	45522	19820	95	
3318	0	45523	19820	95	
3319	0	45527	19820	95	
3320	0	45523	19819	95	
3321	0	45526	19817	95	
3322	0	45524	19818	95	
3323	0	45526	19820	95	
3324	0	45524	19818	95	
3325	0	45511	19817	95	
3326	0	45511	19814	95	
3327	0	45503	19812	95	
3328	0	45494	19808	95	
3329	0	45492	19804	95	
3330	0	45483	19797	95	
3331	0	45473	19800	95	
3332	0	45471	19796	95	
3333	0	45462	19796	95	
3334	0	45464	19788	95	
3335	0	45455	19790	95	
3336	0	45464	19787	95	
3337	0	45463	19788	95	
3338	0	45464	19787	95	
3339	0	45467	19789	95	
3340	0	45464	19793	95	
3341	0	45459	19793	95	
3342	0	45457	19790	95	
3343	0	45463	19792	95	
3344	0	45462	19795	95	
3345	0	45471	19796	95	
3346	0	45471	19804	95	
3347	0	45477	19804	95	
3348	0	45481	19803	95	
3349	0	45473	19804	95	
3350	0	45482	19805	95	
3351	0	45475	19806	95	
3352	0	45471	19807	95	
3353	0	45479	19803	95	
3354	0	45479	19802	95	
3355	0	45478	19804	95	
3356	0	45477	19798	95	
3357	0	45479	19798	95	
3358	0	45468	19796	95	
3359	0	45474	19794	95	
3360	0	45465	19792	95	
3361	0	45471	19792	95	
3362	0	45467	19790	95	
3363	0	45462	19792	95	
3364	0	45467	19797	95	
3365	0	45465	19794	95	
3366	0	45472	19795	95	
3367	0	45476	19798	95	
3368	0	45476	19797	95	
3369	0	45477	19801	95	
3370	0	45478	19800	95	
3371	0	45475	19794	95	
3372	0	45483	19795	95	
3373	0	45485	19792	95	
3374	0	45476	19796	95	
3375	0	45479	19791	95	
3376	0	45480	19794	95	
3377	0	45475	19793	95	
3378	0	45478	19797	95	
3379	0	45471	19795	95	
3380	0	45472	19795	95	
3381	0	45471	19790	95	
3382	0	45473	19792	95	
3383	0	45462	19793	95	
3384	0	45465	19793	95	
3385	0	45468	19796	95	
3386	0	45466	19798	95	
3387	0	45470	19798	95	
3388	0	45468	19803	95	
3389	0	45475	19809	95	
3390	0	45482	19812	95	
3391	0	45480	19808	95	
3392	0	45485	19812	95	
3393	0	45486	19815	95	
3394	0	45487	19814	95	
3395	0	45489	19815	95	
3396	0	45489	19820	95	
3397	0	45489	19820	95	
3398	0	45490	19824	95	
3399	0	45489	19824	95	
3400	0	45496	19825	95	
3401	0	45501	19830	95	
3402	0	45498	19833	95	
3403	0	45501	19833	95	
3404	0	45492	19833	95	
3405	0	45484	19828	95	
3406	0	45480	19827	95	
3407	0	45472	19823	95	
3408	0	45460	19813	95	
3409	0	45457	19812	95	
3410	0	45446	19805	95	
3411	0	45445	19802	95	
3412	0	45451	19799	95	
3413	0	45451	19801	95	
3414	0	45458	19803	95	
3415	0	45449	19798	95	
3416	0	45453	19798	95	
3417	0	45450	19799	95	
3418	0	45445	19797	95	
3419	0	45446	19797	95	
3420	0	45449	19800	95	
3421	0	45447	19801	95	
3422	0	45453	19806	95	
3423	0	45457	19803	95	
3424	0	45454	19804	95	
3425	0	45454	19804	95	
3426	0	45464	19802	95	
3427	0	45456	19801	95	
3428	0	45454	19801	95	
3429	0	45458	19802	95	
3430	0	45452	19798	95	
3431	0	45449	19802	95	
3432	0	45448	19803	95	
3433	0	45448	19799	95	
3434	0	45455	19799	95	
3435	0	45458	19805	95	
3436	0	45453	19799	95	
3437	0	45459	19797	95	
3438	0	45455	19798	95	
3439	0	45445	19800	95	
3440	0	45443	19796	95	
3441	0	45451	19797	95	
3442	0	45443	19797	95	
3443	0	45447	19796	95	
3444	0	45443	19801	95	
3445	0	45447	19801	95	
3446	0	45451	19809	95	
3447	0	45458	19808	95	
3448	0	45459	19810	95	
3449	0	45469	19810	95	
3450	0	45469	19811	95	
3451	0	45469	19813	95	
3452	0	45466	19815	95	
3453	0	45466	19814	95	
3454	0	45464	19814	95	
3455	0	45467	19818	95	
3456	0	45469	19813	95	
3457	0	45463	19816	95	
3458	0	45468	19821	95	
3459	0	45470	19825	95	
3460	0	45476	19828	95	
3461	0	45481	19834	95	
3462	0	45485	19838	95	
3463	0	45490	19833	95	
3464	0	45489	19835	95	
3465	0	45489	19837	95	
3466	0	45493	19840	95	
3467	0	45493	19842	95	
3468	0	45490	19845	95	
3469	0	45488	19845	95	
3470	0	45501	19850	95	
3471	0	45509	19858	95	
3472	0	45511	19861	95	
3473	0	45515	19862	95	
3474	0	45526	19868	95	
3475	0	45526	19868	95	
3476	0	45528	19867	95	
3477	0	45526	19871	95	
3478	0	45517	19871	95	
3479	0	45512	19868	95	
3480	0	45514	19866	95	
3481	0	45507	19864	95	
3482	0	45497	19861	95	
3483	0	45484	19851	95	
3484	0	45482	19847	95	
3485	0	45479	19838	95	
3486	0	45468	19834	95	
3487	0	45453	19825	95	
3488	0	45449	19825	95	
3489	0	45451	19819	95	
3490	0	45446	19820	95	
3491	0	45441	19815	95	
3492	0	45444	19814	95	
3493	0	45444	19813	95	
3494	0	45445	19814	95	
3495	0	45445	19813	95	
3496	0	45444	19815	95	
3497	0	45440	19812	95	
3498	0	45441	19816	95	
3499	0	45444	19817	95	
3500	0	45443	19818	95	
3501	0	45451	19816	95	
3502	0	45450	19819	95	
3503	0	45447	19819	95	
3504	0	45454	19820	95	
3505	0	45452	19818	95	
3506	0	45454	19816	95	
3507	0	45449	19820	95	
3508	0	45442	19819	95	
3509	0	45446	19821	95	
3510	0	45443	19817	95	
3511	0	45442	19818	95	
3512	0	45451	19821	95	
3513	0	45453	19819	95	
3514	0	45455	19819	95	
3515	0	45456	19820	95	
3516	0	45452	19817	95	
3517	0	45462	19823	95	
3518	0	45454	19818	95	
3519	0	45459	19820	95	
3520	0	45449	19823	95	
3521	0	45452	19823	95	
3522	0	45454	19829	95	
3523	0	45449	19830	95	
3524	0	45465	19834	95	
3525	0	45469	19839	95	
3526	0	45474	19844	95	
3527	0	45482	19845	95	
3528	0	45476	19842	95	
3529	0	45478	19847	95	
3530	0	45486	19847	95	
3531	0	45482	19847	95	
3532	0	45480	19853	95	
3533	0	45483	19853	95	
3534	0	45486	19854	95	
3535	0	45493	19856	95	
3536	0	45492	19860	95	
3537	0	45501	19866	95	
3538	0	45500	19866	95	
3539	0	45509	19867	95	
3540	0	45510	19869	95	
3541	0	45514	19869	95	
3542	0	45506	19871	95	
3543	0	45512	19869	95	
3544	0	45506	19870	95	
3545	0	45517	19874	95	
3546	0	45513	19876	95	
3547	0	45522	19879	95	
3548	0	45522	19877	95	
3549	0	45535	19883	95	
3550	0	45533	19884	95	
3551	0	45531	19880	95	
3552	0	45530	19884	95	
3553	0	45528	19879	95	
3554	0	45528	19879	95	
3555	0	45523	19882	95	
3556	0	45525	19880	95	
3557	0	45513	19876	95	
3558	0	45514	19874	95	
3559	0	45502	19875	95	
3560	0	45491	19866	95	
3561	0	45491	19856	95	
3562	0	45481	19851	95	
3563	0	45476	19843	95	
3564	0	45465	19837	95	
3565	0	45462	19835	95	
3566	0	45461	19825	95	
3567	0	45453	19822	95	
3568	0	45448	19821	95	
3569	0	45445	19815	95	
3570	0	45449	19819	95	
3571	0	45443	19815	95	
3572	0	45448	19815	95	
3573	0	45450	19818	95	
3574	0	45451	19819	95	
3575	0	45442	19817	95	
3576	0	45444	19815	95	
3577	0	45446	19817	95	
3578	0	45449	19817	95	
3579	0	45449	19817	95	
3580	0	45445	19819	95	
3581	0	45443	19819	95	
3582	0	45446	19817	95	
3583	0	45443	19818	95	
3584	0	45445	19816	95	
3585	0	45445	19817	94	
3586	0	45445	19819	94	
3587	0	45438	19814	94	
3588	0	45442	19817	94	
3589	0	45444	19818	94	
3590	0	45456	19815	94	
3591	0	45450	19813	94	
3592	0	45441	19813	94	
3593	0	45446	19807	94	
3594	0	45450	19810	94	
3595	0	45449	19809	94	
3596	0	45452	19812	94	
3597	0	45453	19813	94	
3598	0	45453	19810	94	
3599	0	45451	19813	94	
3600	0	45448	19817	94	
3601	0	45455	19818	94	
3602	0	45459	19818	94	
3603	0	45461	19818	94	
3604	0	45463	19820	94	
3605	0	45465	19820	94	
3606	0	45459	19820	94	
3607	0	45462	19819	94	
3608	0	45464	19819	94	
3609	0	45460	19823	94	
3610	0	45462	19822	94	
3611	0	45464	19820	94	
3612	0	45461	19823	94	
3613	0	45471	19826	94	
3614	0	45463	19829	94	
3615	0	45479	19834	94	
3616	0	45475	19831	94	
3617	0	45478	19830	94	
3618	0	45477	19828	94	
3619	0	45475	19827	94	
3620	0	45477	19825	94	
3621	0	45469	19829	94	
3622	0	45468	19828	94	
3623	0	45476	19829	94	
3624	0	45484	19834	94	
3625	0	45482	19833	94	
3626	0	45487	19835	94	
3627	0	45489	19835	94	
3628	0	45491	19838	94	
3629	0	45495	19833	94	
3630	0	45495	19835	94	
3631	0	45497	19831	94	
3632	0	45490	19832	94	
3633	0	45489	19831	94	
3634	0	45475	19827	94	
3635	0	45472	19826	94	
3636	0	45460	19824	94	
3637	0	45453	19813	94	
3638	0	45442	19808	94	
3639	0	45437	19801	94	
3640	0	45430	19792	94	
3641	0	45428	19787	94	
3642	0	45418	19782	94	
3643	0	45404	19772	94	
3644	0	45408	19768	94	
3645	0	45407	19770	94	
3646	0	45401	19763	94	
3647	0	45391	19762	94	
3648	0	45391	19763	94	
3649	0	45396	19769	94	
3650	0	45397	19769	94	
3651	0	45404	19765	94	
3652	0	45400	19764	94	
3653	0	45399	19765	94	
3654	0	45402	19760	94	
3655	0	45399	19755	94	
3656	0	45392	19760	94	
3657	0	45396	19755	94	
3658	0	45395	19755	94	
3659	0	45406	19758	94	
3660	0	45393	19753	94	
3661	0	45398	19749	94	
3662	0	45387	19749	94	
3663	0	45387	19745	94	
3664	0	45377	19742	94	
3665	0	45380	19737	94	
3666	0	45379	19738	94	
3667	0	45374	19740	94	
3668	0	45374	19736	94	
3669	0	45376	19736	94	
3670	0	45376	19733	94	
3671	0	45379	19732	94	
3672	0	45376	19736	94	
3673	0	45379	19738	94	
3674	0	45377	19733	94	
3675	0	45375	19732	94	
3676	0	45372	19733	94	
3677	0	45373	19731	94	
3678	0	45381	19735	94	
3679	0	45376	19737	94	
3680	0	45384	19744	94	
3681	0	45394	19746	94	
3682	0	45391	19746	94	
3683	0	45398	19748	94	
3684	0	45402	19749	94	
3685	0	45400	19743	94	
3686	0	45399	19748	94	
3687	0	45404	19748	94	
3688	0	45403	19745	94	
3689	0	45398	19741	94	
3690	0	45396	19743	94	
3691	0	45398	19740	94	
3692	0	45397	19740	94	
3693	0	45388	19739	94	
3694	0	45393	19743	94	
3695	0	45390	19743	94	
3696	0	45397	19749	94	
3697	0	45398	19750	94	
3698	0	45404	19753	94	
3699	0	45399	19747	94	
3700	0	45393	19755	94	
3701	0	45396	19754	94	
3702	0	45396	19762	94	
3703	0	45403	19761	94	
3704	0	45402	19763	94	
3705	0	45418	19767	94	
3706	0	45421	19773	94	
3707	0	45425	19770	94	
3708	0	45424	19775	94	
3709	0	45432	19774	94	
3710	0	45434	19775	94	
3711	0	45437	19772	94	
3712	0	45440	19772	94	
3713	0	45429	19770	94	
3714	0	45418	19768	94	
3715	0	45410	19758	94	
3716	0	45405	19747	94	
3717	0	45393	19738	94	
3718	0	45380	19730	94	
3719	0	45359	19720	94	
3720	0	45358	19715	94	
3721	0	45350	19709	94	
3722	0	45345	19702	94	
3723	0	45337	19699	94	
3724	0	45345	19692	94	
3725	0	45333	19688	94	
3726	0	45334	19687	94	
3727	0	45325	19687	94	
3728	0	45326	19681	94	
3729	0	45333	19684	94	
3730	0	45324	19684	94	
3731	0	45324	19683	94	
3732	0	45323	19684	94	
3733	0	45325	19684	94	
3734	0	45325	19683	94	
3735	0	45334	19682	94	
3736	0	45334	19687	94	
3737	0	45340	19683	94	
3738	0	45334	19681	94	
3739	0	45333	19680	94	
3740	0	45331	19679	94	
3741	0	45328	19675	94	
3742	0	45318	19678	94	
3743	0	45325	19672	94	
3744	0	45321	19671	94	
3745	0	45320	19672	94	
3746	0	45323	19672	94	
3747	0	45323	19672	94	
3748	0	45317	19673	94	
3749	0	45316	19672	94	
3750	0	45319	19671	94	
3751	0	45314	19674	94	
3752	0	45310	19677	94	
3753	0	45312	19680	94	
3754	0	45313	19683	94	
3755	0	45319	19688	94	
3756	0	45321	19694	94	
3757	0	45316	19705	94	
3758	0	45329	19714	94	
3759	0	45343	19720	94	
3760	0	45353	19727	94	
3761	0	45357	19728	94	
3762	0	45361	19732	94	
3763	0	45360	19737	94	
3764	0	45368	19743	94	
3765	0	45378	19748	94	
3766	0	45378	19756	94	
3767	0	45386	19757	94	
3768	0	45390	19760	94	
3769	0	45398	19767	94	
3770	0	45399	19767	94	
3771	0	45410	19777	94	
3772	0	45422	19783	94	
3773	0	45424	19788	94	
3774	0	45429	19787	94	
3775	0	45432	19790	94	
3776	0	45434	19790	94	
3777	0	45439	19787	94	
3778	0	45432	19794	94	
3779	0	45430	19795	94	
3780	0	45441	19799	94	
3781	0	45444	19804	94	
3782	0	45451	19810	94	
3783	0	45465	19809	94	
3784	0	45469	19813	94	
3785	0	45470	19813	94	
3786	0	45474	19809	94	
3787	0	45476	19815	94	
3788	0	45476	19814	94	
3789	0	45476	19815	94	
3790	0	45474	19824	94	
3791	0	45480	19823	94	
3792	0	45488	19829	94	
3793	0	45488	19828	94	
3794	0	45484	19825	94	
3795	0	45472	19822	94	
3796	0	45464	19813	94	
3797	0	45452	19805	94	
3798	0	45444	19799	94	
3799	0	45436	19790	94	
3800	0	45421	19783	94	
3801	0	45408	19776	94	
3802	0	45404	19777	94	
3803	0	45408	19772	94	
3804	0	45416	19776	94	
3805	0	45422	19772	94	
3806	0	45420	19771	94	
3807	0	45417	19769	94	
3808	0	45421	19770	94	
3809	0	45418	19769	94	
3810	0	45416	19767	94	
3811	0	45409	19767	94	
3812	0	45414	19770	94	
3813	0	45419	19770	94	
3814	0	45419	19773	94	
3815	0	45426	19776	94	
3816	0	45436	19780	94	
3817	0	45432	19776	94	
3818	0	45435	19778	94	
3819	0	45432	19776	94	
3820	0	45433	19774	94	
3821	0	45429	19776	94	
3822	0	45427	19773	94	
3823	0	45430	19773	94	
3824	0	45429	19775	94	
3825	0	45427	19774	94	
3826	0	45426	19774	94	
3827	0	45436	19776	94	
3828	0	45439	19780	94	
3829	0	45436	19778	94	
3830	0	45436	19783	94	
3831	0	45436	19782	94	
3832	0	45442	19782	94	
3833	0	45445	19781	94	
3834	0	45444	19786	94	
3835	0	45445	19785	94	
3836	0	45446	19788	94	
3837	0	45453	19790	94	
3838	0	45451	19797	94	
3839	0	45460	19803	94	
3840	0	45467	19806	94	
3841	0	45475	19805	94	
3842	0	45482	19808	94	
3843	0	45484	19811	94	
3844	0	45488	19814	94	
3845	0	45489	19813	94	
3846	0	45487	19814	94	
3847	0	45490	19818	94	
3848	0	45489	19818	94	
3849	0	45495	19821	94	
3850	0	45499	19822	94	
3851	0	45499	19824	94	
3852	0	45503	19828	94	
3853	0	45510	19825	94	
3854	0	45505	19827	94	
3855	0	45507	19831	94	
3856	0	45504	19830	94	
3857	0	45511	19828	94	
3858	0	45515	19834	94	
3859	0	45525	19836	94	
3860	0	45529	19835	94	
3861	0	45527	19836	94	
3862	0	45537	19834	94	
3863	0	45530	19835	94	
3864	0	45531	19835	94	
3865	0	45523	19837	94	
3866	0	45527	19838	94	
3867	0	45530	19840	94	
3868	0	45529	19843	94	
3869	0	45532	19846	94	
3870	0	45530	19849	94	
3871	0	45533	19855	94	
3872	0	45544	19859	94	
3873	0	45551	19865	94	
3874	0	45543	19860	94	
3875	0	45543	19861	94	
3876	0	45531	19854	94	
3877	0	45523	19842	94	
3878	0	45518	19834	94	
3879	0	45503	19827	94	
3880	0	45491	19817	94	
3881	0	45485	19810	94	
3882	0	45478	19809	94	
3883	0	45469	19805	94	
3884	0	45478	19808	94	
3885	0	45482	19801	97	
3886	0	45475	19799	97	
3887	0	45474	19800	97	
3888	0	45472	19797	97	
3889	0	45473	19798	97	
3890	0	45471	19800	97	
3891	0	45475	19800	97	
3892	0	45471	19800	97	
3893	0	45478	19800	97	
3894	0	45479	19803	97	
3895	0	45480	19802	97	
3896	0	45481	19807	97	
3897	0	45475	19806	97	
3898	0	45482	19808	97	
3899	0	45480	19807	97	
3900	0	45484	19808	97	
3901	0	45483	19804	97	
3902	0	45477	19802	97	
3903	0	45480	19803	97	
3904	0	45473	19801	97	
3905	0	45474	19804	97	
3906	0	45487	19800	97	
3907	0	45486	19799	97	
3908	0	45483	19795	97	
3909	0	45475	19795	97	
3910	0	45480	19793	97	
3911	0	45471	19791	97	
3912	0	45477	19790	97	
3913	0	45471	19797	97	
3914	0	45474	19795	97	
3915	0	45468	19799	97	
3916	0	45472	19800	97	
3917	0	45481	19803	97	
3918	0	45486	19809	97	
3919	0	45492	19809	97	
3920	0	45503	19812	97	
3921	0	45507	19812	97	
3922	0	45510	19812	97	
3923	0	45507	19813	97	
3924	0	45505	19813	97	
3925	0	45503	19810	97	
3926	0	45500	19808	97	
3927	0	45503	19811	97	
3928	0	45507	19814	97	
3929	0	45514	19817	97	
3930	0	45513	19817	97	
3931	0	45518	19817	97	
3932	0	45519	19816	97	
3933	0	45515	19811	97	
3934	0	45512	19809	97	
3935	0	45516	19809	97	
3936	0	45518	19803	97	
3937	0	45515	19808	97	
3938	0	45520	19802	97	
3939	0	45516	19807	97	
3940	0	45517	19807	97	
3941	0	45520	19804	97	
3942	0	45518	19806	97	
3943	0	45519	19802	97	
3944	0	45518	19803	97	
3945	0	45519	19805	97	
3946	0	45522	19803	97	
3947	0	45523	19803	97	
3948	0	45528	19803	97	
3949	0	45523	19804	97	
3950	0	45518	19806	97	
3951	0	45518	19808	97	
3952	0	45517	19804	97	
3953	0	45508	19803	97	
3954	0	45497	19796	97	
3955	0	45487	19792	97	
3956	0	45468	19780	97	
3957	0	45457	19773	97	
3958	0	45444	19764	97	
3959	0	45443	19758	97	
3960	0	45435	19750	97	
3961	0	45438	19748	97	
3962	0	45431	19746	97	
3963	0	45429	19743	97	
3964	0	45428	19743	97	
3965	0	45425	19740	97	
3966	0	45427	19743	97	
3967	0	45421	19738	97	
3968	0	45420	19742	97	
3969	0	45426	19737	97	
3970	0	45430	19736	97	
3971	0	45426	19736	97	
3972	0	45430	19737	97	
3973	0	45431	19740	97	
3974	0	45435	19738	97	
3975	0	45438	19737	97	
3976	0	45428	19737	97	
3977	0	45426	19734	97	
3978	0	45427	19732	97	
3979	0	45414	19728	97	
3980	0	45411	19731	97	
3981	0	45414	19727	97	
3982	0	45408	19730	97	
3983	0	45415	19724	97	
3984	0	45424	19728	97	
3985	0	45430	19727	97	
3986	0	45424	19729	97	
3987	0	45432	19725	97	
3988	0	45425	19725	97	
3989	0	45430	19725	97	
3990	0	45426	19720	97	
3991	0	45418	19717	97	
3992	0	45422	19721	97	
3993	0	45419	19721	97	
3994	0	45417	19725	97	
3995	0	45428	19727	97	
3996	0	45433	19729	97	
3997	0	45436	19733	97	
3998	0	45440	19730	97	
3999	0	45439	19739	97	
4000	0	45443	19733	97	
4001	0	45438	19732	97	
4002	0	45441	19735	97	
4003	0	45445	19734	97	
4004	0	45444	19739	97	
4005	0	45449	19742	97	
4006	0	45448	19743	97	
4007	0	45459	19743	97	
4008	0	45454	19748	97	
4009	0	45456	19747	97	
4010	0	45463	19749	97	
4011	0	45469	19754	97	
4012	0	45462	19754	97	
4013	0	45463	19752	97	
4014	0	45467	19755	97	
4015	0	45466	19755	97	
4016	0	45471	19759	97	
4017	0	45465	19757	97	
4018	0	45465	19761	97	
4019	0	45472	19762	97	
4020	0	45482	19763	97	
4021	0	45486	19768	97	
4022	0	45492	19769	97	
4023	0	45496	19767	97	
4024	0	45495	19770	97	
4025	0	45501	19770	97	
4026	0	45502	19775	97	
4027	0	45504	19779	97	
4028	0	45508	19777	97	
4029	0	45509	19778	97	
4030	0	45514	19779	97	
4031	0	45503	19781	97	
4032	0	45502	19782	97	
4033	0	45493	19770	97	
4034	0	45488	19766	97	
4035	0	45480	19757	97	
4036	0	45463	19749	97	
4037	0	45445	19738	97	
4038	0	45442	19733	97	
4039	0	45431	19724	97	
4040	0	45427	19711	97	
4041	0	45420	19711	97	
4042	0	45411	19703	97	
4043	0	45415	19699	97	
4044	0	45409	19702	97	
4045	0	45407	19697	97	
4046	0	45411	19697	97	
4047	0	45417	19691	97	
4048	0	45410	19690	97	
4049	0	45412	19692	97	
4050	0	45410	19685	97	
4051	0	45401	19682	97	
4052	0	45403	19683	97	
4053	0	45398	19682	97	
4054	0	45403	19678	97	
4055	0	45400	19683	97	
4056	0	45394	19681	97	
4057	0	45401	19684	97	
4058	0	45396	19684	97	
4059	0	45392	19681	97	
4060	0	45391	19682	97	
4061	0	45400	19683	97	
4062	0	45400	19679	97	
4063	0	45396	19677	97	
4064	0	45399	19678	97	
4065	0	45394	19678	97	
4066	0	45393	19673	97	
4067	0	45396	19675	97	
4068	0	45397	19678	97	
4069	0	45403	19677	97	
4070	0	45394	19675	97	
4071	0	45397	19674	97	
4072	0	45397	19674	97	
4073	0	45409	19676	97	
4074	0	45413	19674	97	
4075	0	45411	19679	97	
4076	0	45409	19678	97	
4077	0	45414	19679	97	
4078	0	45407	19678	97	
4079	0	45409	19680	97	
4080	0	45419	19680	97	
4081	0	45417	19680	97	
4082	0	45418	19678	97	
4083	0	45417	19677	97	
4084	0	45426	19681	97	
4085	0	45427	19679	97	
4086	0	45431	19682	97	
4087	0	45423	19678	97	
4088	0	45428	19679	97	
4089	0	45426	19680	97	
4090	0	45429	19677	97	
4091	0	45424	19677	97	
4092	0	45428	19674	97	
4093	0	45432	19678	97	
4094	0	45430	19678	97	
4095	0	45427	19676	97	
4096	0	45437	19677	97	
4097	0	45433	19676	97	
4098	0	45432	19680	97	
4099	0	45438	19681	97	
4100	0	45434	19680	97	
4101	0	45442	19679	97	
4102	0	45441	19684	97	
4103	0	45441	19681	97	
4104	0	45446	19684	97	
4105	0	45448	19681	97	
4106	0	45449	19681	97	
4107	0	45452	19680	97	
4108	0	45452	19681	97	
4109	0	45458	19684	97	
4110	0	45451	19681	97	
4111	0	45450	19680	97	
4112	0	45455	19680	97	
4113	0	45458	19677	97	
4114	0	45449	19679	97	
4115	0	45442	19672	97	
4116	0	45420	19663	97	
4117	0	45414	19660	97	
4118	0	45398	19649	97	
4119	0	45388	19639	97	
4120	0	45390	19628	97	
4121	0	45380	19619	97	
4122	0	45364	19610	97	
4123	0	45356	19603	97	
4124	0	45352	19594	97	
4125	0	45343	19592	97	
4126	0	45340	19591	97	
4127	0	45344	19588	97	
4128	0	45338	19586	97	
4129	0	45343	19584	97	
4130	0	45343	19586	97	
4131	0	45341	19579	97	
4132	0	45336	19578	97	
4133	0	45336	19576	97	
4134	0	45342	19577	97	
4135	0	45340	19575	97	
4136	0	45333	19574	97	
4137	0	45329	19571	97	
4138	0	45331	19569	97	
4139	0	45327	19570	97	
4140	0	45325	19570	97	
4141	0	45322	19566	97	
4142	0	45326	19566	97	
4143	0	45329	19563	97	
4144	0	45326	19562	97	
4145	0	45317	19559	97	
4146	0	45322	19554	97	
4147	0	45322	19554	97	
4148	0	45315	19552	97	
4149	0	45319	19552	97	
4150	0	45315	19552	97	
4151	0	45323	19550	97	
4152	0	45319	19554	97	
4153	0	45321	19551	97	
4154	0	45319	19550	97	
4155	0	45323	19549	97	
4156	0	45323	19551	97	
4157	0	45320	19551	97	
4158	0	45322	19549	97	
4159	0	45327	19552	97	
4160	0	45328	19552	97	
4161	0	45333	19553	97	
4162	0	45336	19549	97	
4163	0	45335	19549	97	
4164	0	45337	19555	97	
4165	0	45341	19553	97	
4166	0	45341	19553	97	
4167	0	45338	19553	97	
4168	0	45334	19552	97	
4169	0	45339	19557	97	
4170	0	45336	19556	97	
4171	0	45334	19558	97	
4172	0	45341	19559	97	
4173	0	45340	19559	97	
4174	0	45344	19563	97	
4175	0	45343	19564	97	
4176	0	45341	19558	97	
4177	0	45344	19564	97	
4178	0	45351	19564	97	
4179	0	45354	19565	97	
4180	0	45350	19566	97	
4181	0	45351	19567	97	
4182	0	45356	19562	97	
4183	0	45354	19566	97	
4184	0	45353	19562	97	
4185	0	45352	19565	95	
4186	0	45363	19564	95	
4187	0	45357	19568	95	
4188	0	45363	19568	95	
4189	0	45365	19571	95	
4190	0	45364	19570	95	
4191	0	45366	19572	95	
4192	0	45357	19574	95	
4193	0	45363	19568	95	
4194	0	45357	19572	95	
4195	0	45360	19571	95	
4196	0	45347	19569	95	
4197	0	45339	19562	95	
4198	0	45327	19560	95	
4199	0	45324	19550	95	
4200	0	45312	19543	95	
4201	0	45304	19537	95	
4202	0	45288	19532	95	
4203	0	45288	19532	95	
4204	0	45288	19523	95	
4205	0	45284	19523	95	
4206	0	45289	19522	95	
4207	0	45283	19520	95	
4208	0	45283	19520	95	
4209	0	45280	19522	95	
4210	0	45282	19523	95	
4211	0	45290	19529	95	
4212	0	45291	19526	95	
4213	0	45292	19526	95	
4214	0	45290	19529	95	
4215	0	45287	19526	95	
4216	0	45292	19530	95	
4217	0	45297	19532	95	
4218	0	45289	19533	95	
4219	0	45287	19536	95	
4220	0	45293	19531	95	
4221	0	45282	19536	95	
4222	0	45277	19539	95	
4223	0	45288	19539	95	
4224	0	45288	19545	95	
4225	0	45296	19542	95	
4226	0	45294	19538	95	
4227	0	45295	19540	95	
4228	0	45296	19537	95	
4229	0	45291	19541	95	
4230	0	45291	19539	95	
4231	0	45291	19542	95	
4232	0	45300	19544	95	
4233	0	45301	19539	95	
4234	0	45301	19540	95	
4235	0	45295	19544	95	
4236	0	45303	19548	95	
4237	0	45305	19548	95	
4238	0	45307	19547	95	
4239	0	45298	19550	95	
4240	0	45306	19552	95	
4241	0	45309	19550	95	
4242	0	45318	19555	95	
4243	0	45317	19560	95	
4244	0	45318	19557	95	
4245	0	45312	19558	95	
4246	0	45314	19567	95	
4247	0	45317	19565	95	
4248	0	45320	19563	95	
4249	0	45317	19568	95	
4250	0	45319	19567	95	
4251	0	45325	19571	95	
4252	0	45327	19575	95	
4253	0	45326	19574	95	
4254	0	45327	19578	95	
4255	0	45338	19581	95	
4256	0	45341	19581	95	
4257	0	45337	19582	95	
4258	0	45333	19589	95	
4259	0	45342	19591	95	
4260	0	45340	19590	95	
4261	0	45350	19593	95	
4262	0	45351	19592	95	
4263	0	45347	19592	95	
4264	0	45351	19596	95	
4265	0	45353	19598	95	
4266	0	45360	19600	95	
4267	0	45355	19607	95	
4268	0	45358	19610	95	
4269	0	45364	19613	95	
4270	0	45367	19612	95	
4271	0	45369	19616	95	
4272	0	45358	19614	95	
4273	0	45353	19611	95	
4274	0	45340	19608	95	
4275	0	45335	19602	95	
4276	0	45322	19597	95	
4277	0	45317	19592	95	
4278	0	45316	19591	95	
4279	0	45307	19583	95	
4280	0	45307	19581	95	
4281	0	45300	19573	95	
4282	0	45298	19578	95	
4283	0	45298	19576	95	
4284	0	45301	19578	95	
4285	0	45292	19576	95	
4286	0	45292	19578	95	
4287	0	45299	19581	95	
4288	0	45305	19583	95	
4289	0	45305	19585	95	
4290	0	45308	19583	95	
4291	0	45305	19590	95	
4292	0	45310	19588	95	
4293	0	45311	19592	95	
4294	0	45311	19588	95	
4295	0	45307	19595	95	
4296	0	45313	19597	95	
4297	0	45310	19601	95	
4298	0	45316	19601	95	
4299	0	45318	19602	95	
4300	0	45323	19605	95	
4301	0	45322	19604	95	
4302	0	45323	19600	95	
4303	0	45319	19600	95	
4304	0	45317	19596	95	
4305	0	45314	19597	95	
4306	0	45316	19598	95	
4307	0	45316	19599	95	
4308	0	45316	19600	95	
4309	0	45326	19601	95	
4310	0	45323	19602	95	
4311	0	45327	19603	95	
4312	0	45330	19602	95	
4313	0	45325	19604	95	
4314	0	45325	19606	95	
4315	0	45329	19607	95	
4316	0	45325	19614	95	
4317	0	45335	19613	95	
4318	0	45329	19618	95	
4319	0	45342	19621	95	
4320	0	45342	19621	95	
4321	0	45347	19625	95	
4322	0	45356	19621	95	
4323	0	45355	19630	95	
4324	0	45363	19628	95	
4325	0	45359	19629	95	
4326	0	45355	19631	95	
4327	0	45355	19627	95	
4328	0	45355	19630	95	
4329	0	45359	19629	95	
4330	0	45355	19635	95	
4331	0	45361	19636	95	
4332	0	45366	19639	95	
4333	0	45366	19641	95	
4334	0	45367	19642	95	
4335	0	45371	19638	95	
4336	0	45375	19642	95	
4337	0	45378	19644	95	
4338	0	45373	19648	95	
4339	0	45380	19647	95	
4340	0	45382	19648	95	
4341	0	45380	19651	95	
4342	0	45381	19648	95	
4343	0	45379	19650	95	
4344	0	45387	19652	95	
4345	0	45389	19658	95	
4346	0	45394	19656	95	
4347	0	45396	19657	95	
4348	0	45388	19656	95	
4349	0	45386	19655	95	
4350	0	45373	19653	95	
4351	0	45371	19649	95	
4352	0	45360	19642	95	
4353	0	45349	19632	95	
4354	0	45340	19626	95	
4355	0	45333	19618	95	
4356	0	45327	19609	95	
4357	0	45316	19604	95	
4358	0	45309	19603	95	
4359	0	45308	19598	95	
4360	0	45313	19601	95	
4361	0	45307	19598	95	
4362	0	45310	19598	95	
4363	0	45304	19599	95	
4364	0	45309	19594	95	
4365	0	45313	19596	95	
4366	0	45308	19593	95	
4367	0	45308	19594	95	
4368	0	45311	19595	95	
4369	0	45316	19596	95	
4370	0	45306	19596	95	
4371	0	45310	19596	95	
4372	0	45311	19598	95	
4373	0	45306	19598	95	
4374	0	45307	19594	95	
4375	0	45304	19594	95	
4376	0	45306	19590	95	
4377	0	45298	19592	95	
4378	0	45298	19595	95	
4379	0	45304	19598	95	
4380	0	45305	19594	95	
4381	0	45305	19595	95	
4382	0	45303	19595	95	
4383	0	45308	19594	95	
4384	0	45312	19592	95	
4385	0	45310	19587	95	
4386	0	45301	19590	95	
4387	0	45304	19589	95	
4388	0	45302	19595	95	
4389	0	45311	19593	95	
4390	0	45308	19595	95	
4391	0	45315	19597	95	
4392	0	45322	19601	95	
4393	0	45317	19601	95	
4394	0	45318	19596	95	
4395	0	45320	19599	95	
4396	0	45316	19602	95	
4397	0	45325	19607	95	
4398	0	45325	19607	95	
4399	0	45333	19610	95	
4400	0	45329	19614	95	
4401	0	45330	19612	95	
4402	0	45341	19617	95	
4403	0	45334	19616	95	
4404	0	45336	19619	95	
4405	0	45347	19619	95	
4406	0	45345	19618	95	
4407	0	45339	19617	95	
4408	0	45351	19620	95	
4409	0	45352	19621	95	
4410	0	45351	19617	95	
4411	0	45352	19622	95	
4412	0	45354	19627	95	
4413	0	45350	19625	95	
4414	0	45349	19626	95	
4415	0	45351	19625	95	
4416	0	45352	19634	95	
4417	0	45359	19634	95	
4418	0	45358	19638	95	
4419	0	45368	19638	95	
4420	0	45366	19636	95	
4421	0	45373	19637	95	
4422	0	45373	19638	95	
4423	0	45375	19639	95	
4424	0	45372	19642	95	
4425	0	45370	19642	95	
4426	0	45368	19640	95	
4427	0	45359	19638	95	
4428	0	45358	19627	95	
4429	0	45345	19626	95	
4430	0	45337	19621	95	
4431	0	45325	19613	95	
4432	0	45314	19603	95	
4433	0	45305	19597	95	
4434	0	45299	19592	95	
4435	0	45294	19588	95	
4436	0	45289	19584	95	
4437	0	45290	19583	95	
4438	0	45287	19581	95	
4439	0	45281	19579	95	
4440	0	45282	19581	95	
4441	0	45285	19581	95	
4442	0	45295	19587	95	
4443	0	45294	19589	95	
4444	0	45295	19586	95	
4445	0	45299	19587	95	
4446	0	45298	19589	95	
4447	0	45292	19586	95	
4448	0	45297	19585	95	
4449	0	45289	19590	95	
4450	0	45294	19590	95	
4451	0	45301	19588	95	
4452	0	45297	19588	95	
4453	0	45296	19588	95	
4454	0	45291	19583	95	
4455	0	45291	19588	95	
4456	0	45289	19587	95	
4457	0	45288	19582	95	
4458	0	45285	19583	95	
4459	0	45283	19581	95	
4460	0	45273	19577	95	
4461	0	45277	19576	95	
4462	0	45281	19578	95	
4463	0	45286	19579	95	
4464	0	45288	19575	95	
4465	0	45279	19578	95	
4466	0	45285	19578	95	
4467	0	45287	19576	95	
4468	0	45292	19577	95	
4469	0	45299	19582	95	
4470	0	45302	19583	95	
4471	0	45304	19583	95	
4472	0	45299	19583	95	
4473	0	45307	19581	95	
4474	0	45303	19583	95	
4475	0	45300	19584	95	
4476	0	45305	19583	95	
4477	0	45299	19583	95	
4478	0	45301	19584	95	
4479	0	45307	19585	95	
4480	0	45304	19587	95	
4481	0	45307	19591	95	
4482	0	45311	19590	95	
4483	0	45311	19591	95	
4484	0	45311	19591	95	
4485	0	45314	19588	94	
4486	0	45307	19592	94	
4487	0	45310	19591	94	
4488	0	45307	19592	94	
4489	0	45315	19589	94	
4490	0	45315	19593	94	
4491	0	45312	19592	94	
4492	0	45320	19595	94	
4493	0	45313	19598	94	
4494	0	45317	19596	94	
4495	0	45323	19598	94	
4496	0	45325	19600	94	
4497	0	45329	19605	94	
4498	0	45332	19605	94	
4499	0	45335	19608	94	
4500	0	45328	19606	94	
4501	0	45333	19606	94	
4502	0	45327	19606	94	
4503	0	45326	19606	94	
4504	0	45316	19603	94	
4505	0	45310	19600	94	
4506	0	45299	19589	94	
4507	0	45283	19579	94	
4508	0	45274	19578	94	
4509	0	45266	19570	94	
4510	0	45266	19563	94	
4511	0	45257	19556	94	
4512	0	45246	19551	94	
4513	0	45252	19553	94	
4514	0	45242	19550	94	
4515	0	45243	19550	94	
4516	0	45245	19547	94	
4517	0	45244	19549	94	
4518	0	45248	19548	94	
4519	0	45251	19550	94	
4520	0	45249	19546	94	
4521	0	45249	19543	94	
4522	0	45250	19542	94	
4523	0	45249	19546	94	
4524	0	45245	19546	94	
4525	0	45248	19552	94	
4526	0	45248	19551	94	
4527	0	45249	19552	94	
4528	0	45252	19553	94	
4529	0	45254	19555	94	
4530	0	45254	19549	94	
4531	0	45260	19544	94	
4532	0	45251	19542	94	
4533	0	45243	19539	94	
4534	0	45242	19540	94	
4535	0	45246	19535	94	
4536	0	45238	19536	94	
4537	0	45238	19530	94	
4538	0	45234	19529	94	
4539	0	45234	19528	94	
4540	0	45231	19526	94	
4541	0	45232	19524	94	
4542	0	45231	19526	94	
4543	0	45236	19531	94	
4544	0	45240	19529	94	
4545	0	45236	19528	94	
4546	0	45247	19535	94	
4547	0	45245	19535	94	
4548	0	45245	19538	94	
4549	0	45254	19538	94	
4550	0	45254	19536	94	
4551	0	45250	19538	94	
4552	0	45250	19540	94	
4553	0	45258	19542	94	
4554	0	45254	19542	94	
4555	0	45261	19545	94	
4556	0	45258	19549	94	
4557	0	45261	19550	94	
4558	0	45260	19547	94	
4559	0	45263	19549	94	
4560	0	45266	19553	94	
4561	0	45269	19552	94	
4562	0	45268	19555	94	
4563	0	45276	19558	94	
4564	0	45271	19562	94	
4565	0	45280	19558	94	
4566	0	45281	19560	94	
4567	0	45280	19562	94	
4568	0	45282	19562	94	
4569	0	45286	19567	94	
4570	0	45289	19567	94	
4571	0	45281	19567	94	
4572	0	45286	19566	94	
4573	0	45286	19571	94	
4574	0	45288	19572	94	
4575	0	45292	19574	94	
4576	0	45298	19574	94	
4577	0	45301	19578	94	
4578	0	45297	19574	94	
4579	0	45294	19578	94	
4580	0	45300	19576	94	
4581	0	45291	19576	94	
4582	0	45282	19570	94	
4583	0	45272	19567	94	
4584	0	45262	19552	94	
4585	0	45247	19548	94	
4586	0	45242	19537	94	
4587	0	45233	19530	94	
4588	0	45223	19522	94	
4589	0	45214	19514	94	
4590	0	45209	19512	94	
4591	0	45205	19505	94	
4592	0	45205	19501	94	
4593	0	45197	19497	94	
4594	0	45196	19501	94	
4595	0	45201	19499	94	
4596	0	45201	19498	94	
4597	0	45199	19500	94	
4598	0	45202	19501	94	
4599	0	45207	19500	94	
4600	0	45200	19499	94	
4601	0	45193	19497	94	
4602	0	45193	19495	94	
4603	0	45195	19498	94	
4604	0	45201	19493	94	
4605	0	45200	19494	94	
4606	0	45200	19494	94	
4607	0	45193	19493	94	
4608	0	45196	19489	94	
4609	0	45191	19487	94	
4610	0	45188	19490	94	
4611	0	45189	19486	94	
4612	0	45182	19484	94	
4613	0	45184	19480	94	
4614	0	45179	19481	94	
4615	0	45180	19481	94	
4616	0	45188	19482	94	
4617	0	45183	19482	94	
4618	0	45190	19482	94	
4619	0	45189	19479	94	
4620	0	45190	19481	94	
4621	0	45184	19480	94	
4622	0	45190	19484	94	
4623	0	45187	19483	94	
4624	0	45188	19484	94	
4625	0	45192	19489	94	
4626	0	45201	19488	94	
4627	0	45202	19489	94	
4628	0	45205	19489	94	
4629	0	45205	19490	94	
4630	0	45202	19490	94	
4631	0	45199	19492	94	
4632	0	45206	19497	94	
4633	0	45209	19499	94	
4634	0	45217	19496	94	
4635	0	45211	19501	94	
4636	0	45214	19496	94	
4637	0	45216	19503	94	
4638	0	45218	19499	94	
4639	0	45215	19499	94	
4640	0	45219	19500	94	
4641	0	45218	19501	94	
4642	0	45214	19506	94	
4643	0	45215	19507	94	
4644	0	45215	19505	94	
4645	0	45222	19513	94	
4646	0	45219	19512	94	
4647	0	45222	19511	94	
4648	0	45228	19517	94	
4649	0	45232	19518	94	
4650	0	45239	19516	94	
4651	0	45242	19520	94	
4652	0	45241	19518	94	
4653	0	45245	19523	94	
4654	0	45250	19523	94	
4655	0	45248	19524	94	
4656	0	45251	19521	94	
4657	0	45247	19525	94	
4658	0	45248	19522	94	
4659	0	45250	19521	94	
4660	0	45241	19520	94	
4661	0	45227	19511	94	
4662	0	45217	19504	94	
4663	0	45209	19494	94	
4664	0	45197	19483	94	
4665	0	45181	19477	94	
4666	0	45170	19470	94	
4667	0	45161	19460	94	
4668	0	45160	19454	94	
4669	0	45155	19452	94	
4670	0	45145	19447	94	
4671	0	45142	19445	94	
4672	0	45142	19446	94	
4673	0	45146	19447	94	
4674	0	45145	19441	94	
4675	0	45143	19442	94	
4676	0	45145	19440	94	
4677	0	45143	19444	94	
4678	0	45143	19438	94	
4679	0	45139	19435	94	
4680	0	45148	19437	94	
4681	0	45142	19439	94	
4682	0	45140	19438	94	
4683	0	45146	19433	94	
4684	0	45147	19432	94	
4685	0	45138	19438	94	
4686	0	45136	19434	94	
4687	0	45137	19434	94	
4688	0	45131	19425	94	
4689	0	45136	19425	94	
4690	0	45132	19425	94	
4691	0	45131	19426	94	
4692	0	45130	19422	94	
4693	0	45122	19419	94	
4694	0	45122	19419	94	
4695	0	45119	19414	94	
4696	0	45123	19417	94	
4697	0	45126	19418	94	
4698	0	45120	19418	94	
4699	0	45125	19418	94	
4700	0	45125	19419	94	
4701	0	45124	19417	94	
4702	0	45129	19420	94	
4703	0	45133	19418	94	
4704	0	45131	19422	94	
4705	0	45126	19428	94	
4706	0	45131	19423	94	
4707	0	45132	19429	94	
4708	0	45142	19426	94	
4709	0	45145	19431	94	
4710	0	45138	19428	94	
4711	0	45143	19427	94	
4712	0	45146	19429	94	
4713	0	45143	19434	94	
4714	0	45141	19432	94	
4715	0	45146	19430	94	
4716	0	45147	19432	94	
4717	0	45142	19432	94	
4718	0	45145	19430	94	
4719	0	45150	19433	94	
4720	0	45153	19431	94	
4721	0	45149	19429	94	
4722	0	45152	19434	94	
4723	0	45146	19435	94	
4724	0	45145	19434	94	
4725	0	45151	19437	94	
4726	0	45154	19436	94	
4727	0	45154	19434	94	
4728	0	45156	19432	94	
4729	0	45165	19437	94	
4730	0	45159	19436	94	
4731	0	45159	19439	94	
4732	0	45173	19440	94	
4733	0	45177	19442	94	
4734	0	45172	19444	94	
4735	0	45170	19439	94	
4736	0	45173	19443	94	
4737	0	45170	19442	94	
4738	0	45164	19441	94	
4739	0	45157	19436	94	
4740	0	45147	19429	94	
4741	0	45139	19422	94	
4742	0	45129	19416	94	
4743	0	45115	19408	94	
4744	0	45096	19393	94	
4745	0	45090	19389	94	
4746	0	45077	19377	94	
4747	0	45067	19372	94	
4748	0	45066	19370	94	
4749	0	45060	19365	94	
4750	0	45063	19364	94	
4751	0	45054	19360	94	
4752	0	45057	19357	94	
4753	0	45053	19359	94	
4754	0	45062	19360	94	
4755	0	45058	19358	94	
4756	0	45061	19359	94	
4757	0	45061	19360	94	
4758	0	45050	19356	94	
4759	0	45053	19353	94	
4760	0	45053	19352	94	
4761	0	45056	19354	94	
4762	0	45059	19354	94	
4763	0	45056	19352	94	
4764	0	45049	19353	94	
4765	0	45056	19352	94	
4766	0	45055	19350	94	
4767	0	45052	19349	94	
4768	0	45045	19352	94	
4769	0	45048	19347	94	
4770	0	45049	19352	94	
4771	0	45044	19347	94	
4772	0	45041	19343	94	
4773	0	45041	19349	94	
4774	0	45049	19354	94	
4775	0	45050	19348	94	
4776	0	45049	19349	94	
4777	0	45049	19348	94	
4778	0	45046	19353	94	
4779	0	45055	19350	94	
4780	0	45057	19355	94	
4781	0	45051	19355	94	
4782	0	45056	19357	94	
4783	0	45055	19361	94	
4784	0	45056	19360	94	
4785	0	45063	19363	95	
4786	0	45060	19368	95	
4787	0	45065	19365	95	
4788	0	45070	19373	95	
4789	0	45067	19370	95	
4790	0	45073	19371	95	
4791	0	45077	19380	95	
4792	0	45079	19377	95	
4793	0	45077	19380	95	
4794	0	45082	19384	95	
4795	0	45085	19386	95	
4796	0	45091	19387	95	
4797	0	45095	19390	95	
4798	0	45092	19391	95	
4799	0	45092	19390	95	
4800	0	45089	19393	95	
4801	0	45094	19394	95	
4802	0	45091	19394	95	
4803	0	45096	19396	95	
4804	0	45098	19402	95	
4805	0	45103	19403	95	
4806	0	45101	19406	95	
4807	0	45112	19405	95	
4808	0	45115	19411	95	
4809	0	45111	19412	95	
4810	0	45119	19415	95	
4811	0	45120	19421	95	
4812	0	45125	19417	95	
4813	0	45126	19419	95	
4814	0	45128	19422	95	
4815	0	45133	19422	95	
4816	0	45139	19430	95	
4817	0	45137	19437	95	
4818	0	45140	19436	95	
4819	0	45144	19438	95	
4820	0	45145	19438	95	
4821	0	45144	19440	95	
4822	0	45142	19437	95	
4823	0	45134	19434	95	
4824	0	45124	19427	95	
4825	0	45116	19425	95	
4826	0	45100	19410	95	
4827	0	45085	19399	95	
4828	0	45073	19392	95	
4829	0	45063	19385	95	
4830	0	45057	19378	95	
4831	0	45050	19370	95	
4832	0	45043	19369	95	
4833	0	45039	19360	95	
4834	0	45044	19362	95	
4835	0	45040	19361	95	
4836	0	45038	19364	95	
4837	0	45046	19364	95	
4838	0	45046	19365	95	
4839	0	45041	19365	95	
4840	0	45046	19365	95	
4841	0	45044	19368	95	
4842	0	45042	19364	95	
4843	0	45045	19363	95	
4844	0	45048	19366	95	
4845	0	45052	19369	95	
4846	0	45052	19367	95	
4847	0	45043	19367	95	
4848	0	45046	19366	95	
4849	0	45047	19368	95	
4850	0	45041	19369	95	
4851	0	45054	19370	95	
4852	0	45051	19371	95	
4853	0	45043	19368	95	
4854	0	45039	19365	95	
4855	0	45046	19362	95	
4856	0	45048	19368	95	
4857	0	45039	19362	95	
4858	0	45041	19365	95	
4859	0	45045	19364	95	
4860	0	45047	19369	95	
4861	0	45048	19374	95	
4862	0	45055	19372	95	
4863	0	45055	19375	95	
4864	0	45061	19380	95	
4865	0	45067	19377	95	
4866	0	45065	19384	95	
4867	0	45070	19388	95	
4868	0	45070	19391	95	
4869	0	45077	19394	95	
4870	0	45079	19395	95	
4871	0	45080	19395	95	
4872	0	45081	19399	95	
4873	0	45087	19398	95	
4874	0	45081	19401	95	
4875	0	45085	19404	95	
4876	0	45090	19407	95	
4877	0	45106	19406	95	
4878	0	45106	19409	95	
4879	0	45104	19409	95	
4880	0	45108	19413	95	
4881	0	45105	19412	95	
4882	0	45105	19415	95	
4883	0	45111	19410	95	
4884	0	45110	19418	95	
4885	0	45112	19420	95	
4886	0	45120	19421	95	
4887	0	45116	19424	95	
4888	0	45118	19424	95	
4889	0	45124	19431	95	
4890	0	45131	19431	95	
4891	0	45126	19435	95	
4892	0	45132	19437	95	
4893	0	45138	19439	95	
4894	0	45139	19437	95	
4895	0	45142	19440	95	
4896	0	45152	19445	95	
4897	0	45150	19443	95	
4898	0	45154	19446	95	
4899	0	45155	19448	95	
4900	0	45160	19454	95	
4901	0	45158	19454	95	
4902	0	45161	19455	95	
4903	0	45166	19455	95	
4904	0	45164	19458	95	
4905	0	45166	19464	95	
4906	0	45163	19465	95	
4907	0	45162	19457	95	
4908	0	45156	19455	95	
4909	0	45142	19451	95	
4910	0	45136	19442	95	
4911	0	45119	19433	95	
4912	0	45102	19424	95	
4913	0	45088	19413	95	
4914	0	45079	19406	95	
4915	0	45077	19398	95	
4916	0	45069	19397	95	
4917	0	45065	19396	95	
4918	0	45068	19394	95	
4919	0	45071	19396	95	
4920	0	45070	19396	95	
4921	0	45078	19393	95	
4922	0	45079	19389	95	
4923	0	45076	19392	95	
4924	0	45076	19396	95	
4925	0	45075	19394	95	
4926	0	45079	19398	95	
4927	0	45080	19397	95	
4928	0	45087	19401	95	
4929	0	45087	19402	95	
4930	0	45082	19401	95	
4931	0	45083	19398	95	
4932	0	45084	19399	95	
4933	0	45093	19400	95	
4934	0	45087	19397	95	
4935	0	45091	19397	95	
4936	0	45091	19393	95	
4937	0	45086	19398	95	
4938	0	45084	19391	95	
4939	0	45085	19389	95	
4940	0	45082	19388	95	
4941	0	45074	19388	95	
4942	0	45075	19386	95	
4943	0	45073	19388	95	
4944	0	45079	19392	95	
4945	0	45084	19392	95	
4946	0	45094	19394	95	
4947	0	45092	19397	95	
4948	0	45098	19394	95	
4949	0	45103	19398	95	
4950	0	45099	19401	95	
4951	0	45104	19400	95	
4952	0	45102	19400	95	
4953	0	45113	19407	95	
4954	0	45109	19408	95	
4955	0	45118	19407	95	
4956	0	45120	19408	95	
4957	0	45122	19412	95	
4958	0	45118	19411	95	
4959	0	45124	19411	95	
4960	0	45124	19413	95	
4961	0	45129	19410	95	
4962	0	45130	19415	95	
4963	0	45128	19415	95	
4964	0	45135	19414	95	
4965	0	45135	19419	95	
4966	0	45136	19421	95	
4967	0	45137	19424	95	
4968	0	45136	19419	95	
4969	0	45139	19422	95	
4970	0	45137	19425	95	
4971	0	45145	19423	95	
4972	0	45146	19428	95	
4973	0	45144	19429	95	
4974	0	45151	19436	95	
4975	0	45162	19435	95	
4976	0	45154	19435	95	
4977	0	45157	19435	95	
4978	0	45156	19435	95	
4979	0	45160	19438	95	
4980	0	45155	19436	95	
4981	0	45159	19440	95	
4982	0	45165	19442	95	
4983	0	45165	19450	95	
4984	0	45178	19454	95	
4985	0	45186	19456	95	
4986	0	45181	19458	95	
4987	0	45186	19459	95	
4988	0	45192	19460	95	
4989	0	45188	19463	95	
4990	0	45186	19462	95	
4991	0	45180	19463	95	
4992	0	45182	19457	95	
4993	0	45169	19449	95	
4994	0	45148	19443	95	
4995	0	45136	19430	95	
4996	0	45121	19420	95	
4997	0	45102	19410	95	
4998	0	45095	19402	95	
4999	0	45092	19395	95	
5000	0	45088	19396	95	
5001	0	45090	19393	95	
5002	0	45089	19390	95	
5003	0	45090	19389	95	
5004	0	45086	19389	95	
5005	0	45089	19392	95	
5006	0	45095	19390	95	
5007	0	45090	19393	95	
5008	0	45092	19395	95	
5009	0	45090	19391	95	
5010	0	45090	19395	95	
5011	0	45099	19399	95	
5012	0	45102	19403	95	
5013	0	45106	19403	95	
5014	0	45106	19404	95	
5015	0	45105	19404	95	
5016	0	45112	19402	95	
5017	0	45109	19401	95	
5018	0	45109	19408	95	
5019	0	45103	19403	95	
5020	0	45106	19399	95	
5021	0	45096	19398	95	
5022	0	45096	19398	95	
5023	0	45098	19396	95	
5024	0	45092	19396	95	
5025	0	45100	19396	95	
5026	0	45099	19398	95	
5027	0	45109	19394	95	
5028	0	45107	19398	95	
5029	0	45102	19394	95	
5030	0	45100	19394	95	
5031	0	45101	19395	95	
5032	0	45099	19393	95	
5033	0	45106	19402	95	
5034	0	45101	19398	95	
5035	0	45108	19403	95	
5036	0	45108	19407	95	
5037	0	45114	19408	95	
5038	0	45113	19409	95	
5039	0	45123	19413	95	
5040	0	45124	19416	95	
5041	0	45124	19415	95	
5042	0	45124	19420	95	
5043	0	45134	19420	95	
5044	0	45130	19421	95	
5045	0	45134	19423	95	
5046	0	45143	19423	95	
5047	0	45139	19423	95	
5048	0	45146	19422	95	
5049	0	45138	19421	95	
5050	0	45139	19428	95	
5051	0	45145	19423	95	
5052	0	45145	19427	95	
5053	0	45144	19426	95	
5054	0	45145	19428	95	
5055	0	45146	19428	95	
5056	0	45146	19431	95	
5057	0	45151	19435	95	
5058	0	45147	19436	95	
5059	0	45157	19439	95	
5060	0	45158	19441	95	
5061	0	45162	19443	95	
5062	0	45164	19444	95	
5063	0	45172	19448	95	
5064	0	45172	19446	95	
5065	0	45171	19447	95	
5066	0	45172	19450	95	
5067	0	45179	19449	95	
5068	0	45179	19451	95	
5069	0	45177	19447	95	
5070	0	45176	19449	95	
5071	0	45171	19448	95	
5072	0	45150	19443	95	
5073	0	45140	19432	95	
5074	0	45131	19424	95	
5075	0	45118	19413	95	
5076	0	45106	19406	95	
5077	0	45100	19396	95	
5078	0	45083	19383	95	
5079	0	45075	19383	95	
5080	0	45076	19380	95	
5081	0	45076	19377	95	
5082	0	45080	19377	95	
5083	0	45083	19376	95	
5084	0	45086	19377	95	
5085	0	45082	19380	95	
5086	0	45086	19380	95	
5087	0	45095	19372	95	
5088	0	45088	19378	95	
5089	0	45089	19374	95	
5090	0	45085	19380	95	
5091	0	45092	19378	95	
5092	0	45094	19380	95	
5093	0	45099	19383	95	
5094	0	45102	19378	95	
5095	0	45100	19379	95	
5096	0	45097	19378	95	
5097	0	45090	19376	95	
5098	0	45097	19379	95	
5099	0	45091	19374	95	
5100	0	45089	19372	95	
5101	0	45082	19365	95	
5102	0	45082	19363	95	
5103	0	45079	19360	95	
5104	0	45078	19359	95	
5105	0	45074	19358	95	
5106	0	45078	19358	95	
5107	0	45080	19354	95	
5108	0	45082	19355	95	
5109	0	45079	19356	95	
5110	0	45077	19355	95	
5111	0	45084	19360	95	
5112	0	45089	19357	95	
5113	0	45081	19358	95	
5114	0	45089	19361	95	
5115	0	45091	19363	95	
5116	0	45097	19366	95	
5117	0	45099	19366	95	
5118	0	45103	19368	95	
5119	0	45104	19369	95	
5120	0	45107	19368	95	
5121	0	45102	19370	95	
5122	0	45105	19368	95	
5123	0	45102	19371	95	
5124	0	45105	19375	95	
5125	0	45106	19378	95	
5126	0	45114	19377	95	
5127	0	45120	19383	95	
5128	0	45121	19383	95	
5129	0	45114	19385	95	
5130	0	45117	19385	95	
5131	0	45115	19386	95	
5132	0	45119	19383	95	
5133	0	45119	19386	95	
5134	0	45126	19387	95	
5135	0	45124	19388	95	
5136	0	45118	19391	95	
5137	0	45127	19389	95	
5138	0	45128	19396	95	
5139	0	45132	19398	95	
5140	0	45137	19400	95	
5141	0	45140	19402	95	
5142	0	45146	19400	95	
5143	0	45141	19406	95	
5144	0	45146	19407	95	
5145	0	45142	19407	95	
5146	0	45142	19408	95	
5147	0	45139	19409	95	
5148	0	45133	19405	95	
5149	0	45119	19396	95	
5150	0	45113	19388	95	
5151	0	45088	19374	95	
5152	0	45074	19365	95	
5153	0	45063	19355	95	
5154	0	45052	19348	95	
5155	0	45037	19344	95	
5156	0	45034	19338	95	
5157	0	45030	19339	95	
5158	0	45032	19336	95	
5159	0	45036	19336	95	
5160	0	45042	19341	95	
5161	0	45049	19344	95	
5162	0	45052	19340	95	
5163	0	45052	19341	95	
5164	0	45055	19345	95	
5165	0	45052	19344	95	
5166	0	45049	19346	95	
5167	0	45051	19348	95	
5168	0	45054	19349	95	
5169	0	45055	19352	95	
5170	0	45063	19355	95	
5171	0	45064	19355	95	
5172	0	45069	19356	95	
5173	0	45060	19350	95	
5174	0	45062	19349	95	
5175	0	45059	19348	95	
5176	0	45059	19350	95	
5177	0	45052	19347	95	
5178	0	45053	19344	95	
5179	0	45052	19343	95	
5180	0	45055	19348	95	
5181	0	45059	19341	95	
5182	0	45058	19342	95	
5183	0	45061	19343	95	
5184	0	45062	19343	95	
5185	0	45057	19342	95	
5186	0	45058	19347	95	
5187	0	45056	19350	95	
5188	0	45061	19349	95	
5189	0	45075	19347	95	
5190	0	45072	19344	95	
5191	0	45077	19349	95	
5192	0	45077	19347	95	
5193	0	45080	19351	95	
5194	0	45077	19354	95	
5195	0	45076	19356	95	
5196	0	45078	19357	95	
5197	0	45085	19360	95	
5198	0	45082	19365	95	
5199	0	45086	19367	95	
5200	0	45087	19366	95	
5201	0	45098	19372	95	
5202	0	45095	19376	95	
5203	0	45108	19374	95	
5204	0	45105	19376	95	
5205	0	45109	19379	95	
5206	0	45107	19378	95	
5207	0	45107	19377	95	
5208	0	45109	19374	95	
5209	0	45106	19377	95	
5210	0	45108	19374	95	
5211	0	45107	19376	95	
5212	0	45118	19379	95	
5213	0	45112	19378	95	
5214	0	45117	19383	95	
5215	0	45120	19381	95	
5216	0	45121	19385	95	
5217	0	45118	19384	95	
5218	0	45112	19381	95	
5219	0	45104	19380	95	
5220	0	45094	19371	95	
5221	0	45082	19363	95	
5222	0	45067	19353	95	
5223	0	45055	19346	95	
5224	0	45050	19337	95	
5225	0	45037	19329	95	
5226	0	45027	19319	95	
5227	0	45017	19313	95	
5228	0	45009	19307	95	
5229	0	45007	19304	95	
5230	0	45013	19305	95	
5231	0	45006	19305	95	
5232	0	45015	19305	95	
